0  0
1  0
2  0
3  0
4  0
5  0
6  0
7  0
8  0
9  0
10  0
11  0
12  0
13  0
14  0
15  0
16  0
17  0
18  0
19  0
20  0
21  0
22  0
23  0
24  0
25  0
26  0
27  0
28  0
29  0
30  0
31  0
32  0
33  0
34  0
35  0
36  0
37  0
38  0
39  0
40  0
41  0
42  0
43  0
44  0
45  0
46  0
47  0
48  0
49  0
50  0
51  0
52  0
53  0
54  0
55  0
56  0
57  0
58  0
59  0
60  0
61  0
62  0
63  0
64  0
65  0
66  0
67  0
68  0
69  0
70  0
71  0
72  0
73  0
74  0
75  0
76  0
77  0
78  0
79  0
80  0
81  0
82  0
83  0
84  0
85  0
86  0
87  0
88  0
89  0
90  0
91  0
92  0
93  0
94  0
95  0
96  0
97  0
98  0
99  0
100  0
101  0
102  0
103  0
104  0
105  0
106  0
107  0
108  0
109  0
110  0
111  0
112  0
113  0
114  0
115  0
116  0
117  0
118  0
119  0
120  0
121  0
122  0
123  0
124  0
125  0
126  0
127  0
128  0
129  0
130  0
131  0
132  0
133  0
134  0
135  0
136  0
137  0
138  0
139  0
140  0
141  0
142  0
143  0
144  0
145  0
146  0
147  0
148  0
149  0
150  0
151  0
152  0
153  0
154  0
155  0
156  0
157  0
158  0
159  0
160  0
161  0
162  0
163  0
164  0
165  0
166  2
167  1
168  2
169  2
170  4
171  7
172  6
173  7
174  6
175  10
176  7
177  4
178  10
179  9
180  8
181  8
182  12
183  9
184  13
185  11
186  7
187  14
188  12
189  9
190  8
191  16
192  12
193  11
194  6
195  8
196  9
197  11
198  7
199  5
200  5
201  12
202  19
203  8
204  25
205  37
206  69
207  109
208  179
209  273
210  406
211  525
212  741
213  924
214  1137
215  1374
216  1481
217  1671
218  1770
219  1924
220  1934
221  1940
222  1892
223  1923
224  1909
225  1830
226  1779
227  1816
228  1754
229  1770
230  1844
231  1726
232  1613
233  1694
234  1683
235  1609
236  1671
237  1592
238  1604
239  1655
240  1714
241  1774
242  1844
243  1843
244  1845
245  1890
246  1916
247  1940
248  2005
249  1912
250  2047
251  1981
252  1950
253  1954
254  1878
255  1898
256  1766
257  1818
258  1794
259  1793
260  1863
261  1828
262  1748
263  1704
264  1798
265  1673
266  1739
267  1666
268  1647
269  1579
270  1628
271  1576
272  1551
273  1608
274  1503
275  1563
276  1570
277  1556
278  1484
279  1552
280  1531
281  1506
282  1496
283  1479
284  1471
285  1448
286  1403
287  1378
288  1400
289  1414
290  1415
291  1396
292  1392
293  1313
294  1364
295  1284
296  1244
297  1320
298  1370
299  1302
300  1271
301  1273
302  1297
303  1277
304  1238
305  1244
306  1216
307  1313
308  1222
309  1199
310  1139
311  1197
312  1228
313  1207
314  1173
315  1202
316  1191
317  1158
318  1139
319  1194
320  1179
321  1126
322  1128
323  1151
324  1090
325  1203
326  1115
327  1076
328  1070
329  1085
330  1125
331  1082
332  1115
333  1037
334  1022
335  1065
336  1038
337  1085
338  1092
339  1023
340  1056
341  993
342  1017
343  1043
344  982
345  1036
346  976
347  975
348  965
349  952
350  927
351  964
352  962
353  964
354  920
355  992
356  986
357  981
358  862
359  915
360  903
361  898
362  876
363  874
364  927
365  904
366  861
367  869
368  883
369  904
370  831
371  840
372  870
373  859
374  788
375  802
376  796
377  841
378  815
379  814
380  796
381  820
382  806
383  792
384  808
385  764
386  796
387  836
388  749
389  805
390  779
391  778
392  829
393  743
394  817
395  768
396  755
397  733
398  795
399  716
400  756
401  743
402  736
403  717
404  793
405  753
406  767
407  723
408  730
409  745
410  743
411  695
412  693
413  706
414  700
415  662
416  668
417  744
418  693
419  689
420  699
421  673
422  725
423  658
424  705
425  683
426  685
427  650
428  674
429  629
430  682
431  664
432  688
433  636
434  639
435  617
436  591
437  630
438  629
439  620
440  588
441  619
442  624
443  650
444  644
445  606
446  636
447  595
448  622
449  610
450  591
451  635
452  567
453  576
454  632
455  611
456  578
457  575
458  591
459  572
460  545
461  593
462  591
463  587
464  567
465  556
466  556
467  544
468  596
469  603
470  528
471  581
472  532
473  609
474  540
475  517
476  556
477  509
478  543
479  575
480  564
481  554
482  535
483  556
484  525
485  519
486  534
487  518
488  535
489  542
490  575
491  568
492  540
493  515
494  535
495  548
496  487
497  560
498  565
499  545
500  559
501  519
502  483
503  539
504  517
505  509
506  556
507  504
508  526
509  542
510  506
511  516
512  485
513  545
514  509
515  491
516  476
517  479
518  499
519  538
520  535
521  466
522  496
523  501
524  486
525  469
526  501
527  516
528  494
529  461
530  496
531  452
532  472
533  451
534  504
535  476
536  494
537  460
538  481
539  431
540  459
541  453
542  450
543  460
544  473
545  454
546  438
547  474
548  423
549  444
550  430
551  430
552  405
553  413
554  449
555  419
556  413
557  408
558  429
559  369
560  412
561  412
562  413
563  385
564  422
565  416
566  406
567  379
568  396
569  371
570  341
571  369
572  389
573  383
574  404
575  416
576  379
577  397
578  357
579  361
580  370
581  391
582  373
583  373
584  345
585  340
586  335
587  389
588  310
589  365
590  361
591  364
592  361
593  364
594  393
595  317
596  342
597  355
598  398
599  383
600  328
601  376
602  363
603  356
604  353
605  367
606  318
607  322
608  366
609  325
610  337
611  326
612  333
613  332
614  308
615  337
616  347
617  334
618  335
619  333
620  316
621  292
622  316
623  309
624  305
625  312
626  302
627  285
628  308
629  302
630  286
631  295
632  292
633  272
634  261
635  268
636  278
637  256
638  270
639  265
640  273
641  298
642  270
643  225
644  254
645  251
646  230
647  221
648  212
649  213
650  217
651  229
652  211
653  225
654  222
655  220
656  231
657  204
658  189
659  195
660  195
661  204
662  194
663  215
664  174
665  182
666  177
667  202
668  171
669  177
670  154
671  181
672  142
673  157
674  130
675  160
676  143
677  147
678  128
679  140
680  138
681  142
682  129
683  121
684  132
685  127
686  124
687  120
688  110
689  127
690  89
691  106
692  109
693  99
694  97
695  90
696  99
697  86
698  108
699  87
700  97
701  87
702  86
703  82
704  84
705  73
706  94
707  89
708  77
709  64
710  79
711  68
712  82
713  66
714  75
715  81
716  75
717  66
718  65
719  62
720  65
721  65
722  71
723  61
724  62
725  58
726  80
727  59
728  55
729  69
730  68
731  70
732  70
733  58
734  62
735  67
736  67
737  60
738  70
739  49
740  60
741  56
742  55
743  45
744  51
745  51
746  57
747  55
748  65
749  50
750  48
751  53
752  58
753  60
754  39
755  57
756  44
757  35
758  46
759  46
760  51
761  50
762  59
763  47
764  37
765  59
766  52
767  38
768  49
769  53
770  32
771  42
772  30
773  41
774  44
775  47
776  41
777  47
778  42
779  52
780  48
781  61
782  52
783  38
784  48
785  42
786  39
787  40
788  48
789  43
790  41
791  39
792  30
793  44
794  36
795  28
796  45
797  40
798  34
799  36
800  43
801  38
802  38
803  25
804  33
805  36
806  44
807  35
808  29
809  43
810  37
811  25
812  39
813  29
814  37
815  41
816  47
817  37
818  34
819  34
820  22
821  27
822  31
823  34
824  26
825  38
826  45
827  31
828  24
829  27
830  29
831  40
832  43
833  22
834  26
835  23
836  25
837  24
838  25
839  20
840  18
841  26
842  24
843  17
844  24
845  31
846  21
847  26
848  17
849  28
850  26
851  24
852  22
853  29
854  22
855  31
856  25
857  23
858  22
859  20
860  21
861  30
862  22
863  20
864  20
865  22
866  20
867  24
868  19
869  20
870  25
871  24
872  16
873  24
874  24
875  23
876  13
877  19
878  15
879  27
880  25
881  27
882  26
883  19
884  18
885  20
886  23
887  20
888  24
889  22
890  16
891  22
892  16
893  10
894  15
895  24
896  12
897  13
898  22
899  17
900  14
901  15
902  11
903  22
904  16
905  24
906  13
907  13
908  8
909  13
910  13
911  12
912  10
913  11
914  21
915  8
916  18
917  10
918  13
919  18
920  9
921  15
922  10
923  18
924  7
925  14
926  12
927  10
928  7
929  15
930  18
931  22
932  7
933  7
934  16
935  18
936  11
937  7
938  8
939  12
940  11
941  9
942  12
943  19
944  9
945  16
946  7
947  19
948  6
949  11
950  8
951  12
952  12
953  9
954  14
955  11
956  14
957  9
958  14
959  14
960  14
961  9
962  13
963  12
964  12
965  12
966  13
967  8
968  13
969  11
970  12
971  3
972  13
973  8
974  9
975  9
976  11
977  9
978  8
979  10
980  11
981  10
982  9
983  14
984  12
985  15
986  13
987  14
988  10
989  9
990  13
991  12
992  8
993  7
994  9
995  12
996  15
997  14
998  4
999  13
1000  10
1001  10
1002  5
1003  14
1004  9
1005  8
1006  14
1007  11
1008  14
1009  8
1010  9
1011  13
1012  15
1013  9
1014  9
1015  14
1016  11
1017  14
1018  11
1019  11
1020  10
1021  10
1022  7
1023  12
1024  9
1025  12
1026  5
1027  11
1028  10
1029  4
1030  5
1031  5
1032  10
1033  10
1034  14
1035  8
1036  10
1037  3
1038  13
1039  7
1040  10
1041  10
1042  8
1043  4
1044  5
1045  4
1046  7
1047  6
1048  4
1049  10
1050  8
1051  10
1052  8
1053  4
1054  5
1055  8
1056  8
1057  8
1058  8
1059  7
1060  13
1061  7
1062  3
1063  7
1064  4
1065  7
1066  3
1067  7
1068  7
1069  7
1070  6
1071  9
1072  7
1073  8
1074  11
1075  11
1076  6
1077  7
1078  4
1079  7
1080  7
1081  6
1082  8
1083  4
1084  7
1085  10
1086  6
1087  6
1088  8
1089  5
1090  1
1091  7
1092  6
1093  11
1094  5
1095  6
1096  11
1097  6
1098  6
1099  4
1100  4
1101  8
1102  5
1103  4
1104  5
1105  5
1106  0
1107  8
1108  6
1109  4
1110  5
1111  5
1112  4
1113  5
1114  2
1115  6
1116  4
1117  3
1118  5
1119  4
1120  2
1121  2
1122  5
1123  1
1124  1
1125  4
1126  6
1127  5
1128  5
1129  2
1130  5
1131  5
1132  4
1133  4
1134  5
1135  5
1136  6
1137  7
1138  4
1139  0
1140  4
1141  4
1142  8
1143  1
1144  6
1145  6
1146  7
1147  8
1148  2
1149  3
1150  3
1151  6
1152  8
1153  5
1154  6
1155  3
1156  5
1157  2
1158  5
1159  6
1160  3
1161  3
1162  6
1163  6
1164  2
1165  2
1166  3
1167  3
1168  3
1169  2
1170  2
1171  6
1172  5
1173  2
1174  3
1175  2
1176  1
1177  2
1178  2
1179  4
1180  1
1181  3
1182  2
1183  2
1184  4
1185  2
1186  3
1187  2
1188  2
1189  4
1190  1
1191  5
1192  1
1193  3
1194  4
1195  3
1196  3
1197  5
1198  2
1199  1
1200  0
1201  1
1202  6
1203  1
1204  4
1205  4
1206  5
1207  1
1208  8
1209  4
1210  1
1211  2
1212  4
1213  1
1214  2
1215  3
1216  3
1217  3
1218  4
1219  2
1220  0
1221  2
1222  6
1223  4
1224  1
1225  4
1226  2
1227  5
1228  1
1229  3
1230  5
1231  2
1232  3
1233  1
1234  3
1235  2
1236  0
1237  2
1238  4
1239  7
1240  4
1241  2
1242  2
1243  3
1244  3
1245  1
1246  3
1247  5
1248  1
1249  2
1250  2
1251  3
1252  2
1253  3
1254  3
1255  2
1256  1
1257  6
1258  2
1259  2
1260  1
1261  2
1262  2
1263  3
1264  1
1265  2
1266  4
1267  2
1268  1
1269  3
1270  1
1271  2
1272  2
1273  1
1274  1
1275  0
1276  3
1277  4
1278  1
1279  0
1280  4
1281  1
1282  0
1283  6
1284  3
1285  1
1286  1
1287  3
1288  0
1289  6
1290  2
1291  1
1292  2
1293  0
1294  3
1295  6
1296  5
1297  0
1298  2
1299  1
1300  4
1301  2
1302  3
1303  2
1304  2
1305  2
1306  4
1307  5
1308  1
1309  1
1310  2
1311  3
1312  1
1313  1
1314  3
1315  2
1316  1
1317  4
1318  3
1319  1
1320  5
1321  1
1322  3
1323  5
1324  1
1325  3
1326  0
1327  2
1328  2
1329  2
1330  2
1331  3
1332  0
1333  2
1334  3
1335  2
1336  1
1337  3
1338  2
1339  6
1340  3
1341  4
1342  2
1343  1
1344  0
1345  5
1346  2
1347  1
1348  4
1349  2
1350  2
1351  2
1352  3
1353  3
1354  3
1355  2
1356  6
1357  3
1358  3
1359  2
1360  2
1361  3
1362  1
1363  1
1364  4
1365  0
1366  0
1367  1
1368  0
1369  1
1370  1
1371  4
1372  1
1373  5
1374  4
1375  3
1376  1
1377  0
1378  2
1379  3
1380  0
1381  3
1382  3
1383  2
1384  1
1385  3
1386  4
1387  3
1388  3
1389  4
1390  2
1391  2
1392  4
1393  5
1394  0
1395  2
1396  3
1397  2
1398  0
1399  0
1400  1
1401  4
1402  3
1403  4
1404  4
1405  1
1406  3
1407  4
1408  2
1409  4
1410  2
1411  2
1412  0
1413  5
1414  2
1415  0
1416  1
1417  1
1418  1
1419  5
1420  1
1421  5
1422  1
1423  5
1424  1
1425  3
1426  3
1427  2
1428  3
1429  1
1430  1
1431  0
1432  3
1433  2
1434  1
1435  1
1436  4
1437  1
1438  2
1439  2
1440  1
1441  3
1442  4
1443  1
1444  1
1445  2
1446  3
1447  2
1448  0
1449  0
1450  2
1451  4
1452  1
1453  2
1454  3
1455  5
1456  2
1457  3
1458  0
1459  5
1460  3
1461  3
1462  1
1463  0
1464  3
1465  3
1466  1
1467  2
1468  0
1469  0
1470  3
1471  3
1472  1
1473  0
1474  5
1475  2
1476  1
1477  2
1478  1
1479  3
1480  2
1481  0
1482  1
1483  4
1484  3
1485  2
1486  6
1487  1
1488  1
1489  0
1490  5
1491  2
1492  1
1493  3
1494  5
1495  1
1496  3
1497  4
1498  1
1499  1
1500  1
1501  2
1502  2
1503  2
1504  3
1505  1
1506  1
1507  0
1508  2
1509  2
1510  2
1511  0
1512  5
1513  2
1514  0
1515  0
1516  3
1517  1
1518  2
1519  5
1520  3
1521  0
1522  3
1523  2
1524  2
1525  2
1526  2
1527  3
1528  6
1529  2
1530  0
1531  2
1532  3
1533  2
1534  1
1535  3
1536  1
1537  4
1538  2
1539  0
1540  3
1541  4
1542  1
1543  2
1544  2
1545  2
1546  2
1547  4
1548  8
1549  3
1550  2
1551  0
1552  2
1553  0
1554  0
1555  1
1556  4
1557  2
1558  2
1559  1
1560  0
1561  1
1562  1
1563  2
1564  4
1565  2
1566  4
1567  1
1568  3
1569  0
1570  4
1571  5
1572  1
1573  2
1574  0
1575  2
1576  3
1577  2
1578  2
1579  1
1580  0
1581  4
1582  1
1583  3
1584  3
1585  1
1586  5
1587  7
1588  0
1589  2
1590  3
1591  3
1592  2
1593  2
1594  3
1595  1
1596  1
1597  0
1598  0
1599  1
1600  1
1601  2
1602  1
1603  3
1604  0
1605  3
1606  5
1607  4
1608  1
1609  1
1610  3
1611  0
1612  2
1613  2
1614  1
1615  3
1616  2
1617  1
1618  3
1619  1
1620  1
1621  4
1622  2
1623  3
1624  1
1625  2
1626  2
1627  1
1628  0
1629  2
1630  2
1631  3
1632  3
1633  1
1634  3
1635  2
1636  3
1637  1
1638  0
1639  1
1640  2
1641  1
1642  1
1643  1
1644  2
1645  2
1646  3
1647  3
1648  4
1649  7
1650  0
1651  4
1652  4
1653  2
1654  2
1655  1
1656  1
1657  2
1658  6
1659  1
1660  2
1661  4
1662  3
1663  2
1664  1
1665  4
1666  3
1667  2
1668  2
1669  2
1670  1
1671  2
1672  1
1673  2
1674  1
1675  5
1676  1
1677  3
1678  4
1679  0
1680  1
1681  2
1682  4
1683  3
1684  1
1685  2
1686  0
1687  4
1688  1
1689  1
1690  3
1691  2
1692  2
1693  2
1694  3
1695  3
1696  4
1697  2
1698  1
1699  1
1700  4
1701  2
1702  4
1703  2
1704  3
1705  4
1706  2
1707  0
1708  2
1709  1
1710  2
1711  2
1712  2
1713  6
1714  1
1715  2
1716  2
1717  0
1718  0
1719  1
1720  1
1721  3
1722  5
1723  2
1724  2
1725  1
1726  2
1727  1
1728  2
1729  0
1730  3
1731  3
1732  6
1733  1
1734  5
1735  2
1736  3
1737  3
1738  3
1739  0
1740  2
1741  5
1742  2
1743  3
1744  1
1745  2
1746  2
1747  1
1748  2
1749  2
1750  1
1751  0
1752  3
1753  2
1754  1
1755  3
1756  3
1757  1
1758  3
1759  2
1760  4
1761  2
1762  3
1763  2
1764  1
1765  1
1766  4
1767  1
1768  2
1769  2
1770  3
1771  0
1772  2
1773  0
1774  0
1775  4
1776  3
1777  2
1778  2
1779  0
1780  1
1781  2
1782  2
1783  2
1784  1
1785  1
1786  1
1787  2
1788  2
1789  1
1790  1
1791  2
1792  0
1793  2
1794  1
1795  2
1796  1
1797  2
1798  1
1799  1
1800  1
1801  2
1802  1
1803  3
1804  3
1805  9
1806  2
1807  2
1808  2
1809  2
1810  1
1811  0
1812  3
1813  3
1814  2
1815  4
1816  3
1817  1
1818  3
1819  1
1820  1
1821  2
1822  4
1823  3
1824  2
1825  2
1826  2
1827  4
1828  4
1829  3
1830  3
1831  3
1832  1
1833  3
1834  1
1835  4
1836  0
1837  3
1838  1
1839  1
1840  3
1841  1
1842  0
1843  2
1844  2
1845  2
1846  3
1847  2
1848  3
1849  1
1850  3
1851  1
1852  3
1853  4
1854  3
1855  2
1856  2
1857  2
1858  2
1859  2
1860  4
1861  0
1862  1
1863  2
1864  0
1865  3
1866  2
1867  6
1868  1
1869  6
1870  1
1871  4
1872  1
1873  4
1874  4
1875  2
1876  3
1877  1
1878  2
1879  3
1880  3
1881  4
1882  3
1883  2
1884  0
1885  5
1886  0
1887  2
1888  1
1889  1
1890  5
1891  2
1892  2
1893  2
1894  1
1895  3
1896  0
1897  4
1898  1
1899  1
1900  1
1901  4
1902  3
1903  4
1904  0
1905  3
1906  2
1907  4
1908  1
1909  5
1910  1
1911  1
1912  1
1913  2
1914  3
1915  2
1916  2
1917  1
1918  1
1919  0
1920  2
1921  2
1922  3
1923  1
1924  3
1925  0
1926  4
1927  1
1928  2
1929  2
1930  4
1931  3
1932  3
1933  1
1934  1
1935  1
1936  2
1937  4
1938  2
1939  1
1940  0
1941  1
1942  3
1943  1
1944  1
1945  5
1946  0
1947  2
1948  2
1949  2
1950  2
1951  2
1952  3
1953  2
1954  0
1955  4
1956  2
1957  0
1958  2
1959  1
1960  1
1961  3
1962  0
1963  4
1964  7
1965  2
1966  1
1967  2
1968  3
1969  0
1970  2
1971  2
1972  0
1973  2
1974  1
1975  1
1976  3
1977  1
1978  2
1979  0
1980  1
1981  5
1982  2
1983  3
1984  2
1985  1
1986  1
1987  1
1988  0
1989  1
1990  2
1991  2
1992  1
1993  2
1994  3
1995  2
1996  2
1997  1
1998  1
1999  4
2000  1
2001  6
2002  1
2003  1
2004  4
2005  2
2006  1
2007  3
2008  3
2009  1
2010  0
2011  2
2012  2
2013  2
2014  2
2015  3
2016  1
2017  2
2018  1
2019  3
2020  2
2021  2
2022  2
2023  1
2024  4
2025  2
2026  0
2027  2
2028  1
2029  4
2030  3
2031  3
2032  2
2033  5
2034  4
2035  4
2036  1
2037  2
2038  1
2039  2
2040  1
2041  2
2042  0
2043  3
2044  1
2045  0
2046  3
2047  3
2048  3
2049  0
2050  1
2051  2
2052  1
2053  1
2054  2
2055  1
2056  5
2057  0
2058  2
2059  3
2060  3
2061  1
2062  1
2063  2
2064  1
2065  1
2066  2
2067  2
2068  0
2069  4
2070  0
2071  1
2072  1
2073  2
2074  1
2075  3
2076  3
2077  0
2078  1
2079  0
2080  0
2081  0
2082  1
2083  1
2084  2
2085  1
2086  3
2087  1
2088  0
2089  1
2090  3
2091  5
2092  0
2093  0
2094  3
2095  2
2096  2
2097  4
2098  2
2099  4
2100  1
2101  2
2102  1
2103  4
2104  2
2105  1
2106  3
2107  3
2108  1
2109  2
2110  1
2111  3
2112  1
2113  1
2114  3
2115  0
2116  2
2117  1
2118  6
2119  3
2120  2
2121  3
2122  0
2123  1
2124  3
2125  2
2126  3
2127  4
2128  0
2129  3
2130  2
2131  2
2132  0
2133  4
2134  1
2135  1
2136  2
2137  1
2138  3
2139  3
2140  3
2141  2
2142  0
2143  4
2144  3
2145  1
2146  1
2147  2
2148  1
2149  0
2150  0
2151  2
2152  2
2153  0
2154  0
2155  2
2156  2
2157  2
2158  1
2159  3
2160  3
2161  1
2162  2
2163  3
2164  3
2165  0
2166  3
2167  3
2168  1
2169  1
2170  2
2171  1
2172  1
2173  3
2174  2
2175  2
2176  2
2177  4
2178  5
2179  2
2180  2
2181  3
2182  2
2183  4
2184  3
2185  3
2186  4
2187  2
2188  4
2189  0
2190  2
2191  1
2192  3
2193  1
2194  2
2195  2
2196  1
2197  1
2198  2
2199  3
2200  2
2201  3
2202  2
2203  0
2204  1
2205  1
2206  2
2207  1
2208  1
2209  1
2210  1
2211  1
2212  1
2213  1
2214  2
2215  1
2216  1
2217  2
2218  1
2219  0
2220  2
2221  1
2222  2
2223  1
2224  1
2225  2
2226  2
2227  1
2228  3
2229  1
2230  1
2231  0
2232  1
2233  4
2234  2
2235  2
2236  0
2237  0
2238  3
2239  2
2240  0
2241  2
2242  0
2243  1
2244  3
2245  0
2246  0
2247  1
2248  1
2249  3
2250  0
2251  3
2252  0
2253  1
2254  3
2255  0
2256  2
2257  0
2258  1
2259  1
2260  2
2261  1
2262  2
2263  2
2264  1
2265  1
2266  2
2267  0
2268  3
2269  1
2270  1
2271  2
2272  1
2273  1
2274  2
2275  2
2276  2
2277  2
2278  0
2279  1
2280  1
2281  1
2282  0
2283  0
2284  3
2285  2
2286  2
2287  0
2288  2
2289  0
2290  1
2291  0
2292  2
2293  2
2294  0
2295  1
2296  3
2297  1
2298  3
2299  1
2300  0
2301  2
2302  2
2303  0
2304  3
2305  4
2306  4
2307  0
2308  2
2309  0
2310  1
2311  1
2312  3
2313  0
2314  1
2315  4
2316  2
2317  4
2318  0
2319  3
2320  1
2321  4
2322  1
2323  3
2324  3
2325  4
2326  0
2327  2
2328  0
2329  1
2330  2
2331  2
2332  1
2333  0
2334  2
2335  3
2336  1
2337  2
2338  1
2339  0
2340  1
2341  0
2342  0
2343  1
2344  2
2345  3
2346  3
2347  1
2348  1
2349  1
2350  0
2351  2
2352  1
2353  2
2354  5
2355  1
2356  1
2357  0
2358  0
2359  1
2360  1
2361  1
2362  0
2363  0
2364  2
2365  1
2366  1
2367  1
2368  3
2369  2
2370  0
2371  2
2372  2
2373  2
2374  1
2375  3
2376  0
2377  1
2378  1
2379  4
2380  0
2381  2
2382  3
2383  0
2384  3
2385  2
2386  0
2387  0
2388  3
2389  2
2390  0
2391  2
2392  0
2393  0
2394  3
2395  4
2396  3
2397  2
2398  1
2399  0
2400  2
2401  2
2402  2
2403  2
2404  1
2405  0
2406  0
2407  0
2408  0
2409  2
2410  1
2411  1
2412  0
2413  1
2414  0
2415  2
2416  1
2417  4
2418  3
2419  1
2420  0
2421  0
2422  0
2423  1
2424  2
2425  5
2426  4
2427  5
2428  1
2429  1
2430  2
2431  3
2432  1
2433  0
2434  1
2435  1
2436  2
2437  0
2438  0
2439  5
2440  1
2441  1
2442  3
2443  2
2444  1
2445  2
2446  1
2447  1
2448  1
2449  0
2450  1
2451  1
2452  0
2453  2
2454  1
2455  1
2456  0
2457  5
2458  0
2459  1
2460  0
2461  3
2462  1
2463  1
2464  0
2465  3
2466  1
2467  5
2468  2
2469  2
2470  1
2471  3
2472  2
2473  2
2474  1
2475  1
2476  2
2477  0
2478  3
2479  5
2480  1
2481  0
2482  1
2483  1
2484  2
2485  0
2486  1
2487  2
2488  1
2489  3
2490  1
2491  4
2492  0
2493  2
2494  3
2495  2
2496  0
2497  1
2498  1
2499  4
2500  1
2501  0
2502  2
2503  0
2504  0
2505  0
2506  1
2507  3
2508  3
2509  3
2510  1
2511  3
2512  2
2513  1
2514  1
2515  0
2516  1
2517  0
2518  3
2519  0
2520  3
2521  3
2522  1
2523  2
2524  0
2525  4
2526  1
2527  0
2528  2
2529  2
2530  2
2531  4
2532  1
2533  0
2534  2
2535  1
2536  0
2537  1
2538  0
2539  0
2540  4
2541  4
2542  1
2543  2
2544  1
2545  0
2546  1
2547  1
2548  3
2549  2
2550  1
2551  1
2552  0
2553  2
2554  4
2555  1
2556  3
2557  0
2558  0
2559  0
2560  0
2561  0
2562  1
2563  2
2564  2
2565  0
2566  2
2567  2
2568  1
2569  1
2570  3
2571  1
2572  1
2573  0
2574  1
2575  1
2576  1
2577  0
2578  1
2579  0
2580  2
2581  2
2582  2
2583  1
2584  0
2585  1
2586  2
2587  0
2588  3
2589  1
2590  2
2591  1
2592  1
2593  2
2594  1
2595  0
2596  0
2597  0
2598  1
2599  0
2600  3
2601  2
2602  1
2603  1
2604  2
2605  0
2606  0
2607  0
2608  1
2609  1
2610  0
2611  4
2612  1
2613  0
2614  1
2615  3
2616  1
2617  3
2618  1
2619  0
2620  0
2621  2
2622  0
2623  1
2624  0
2625  4
2626  2
2627  0
2628  1
2629  0
2630  2
2631  2
2632  2
2633  1
2634  4
2635  1
2636  1
2637  2
2638  0
2639  0
2640  3
2641  3
2642  1
2643  2
2644  2
2645  3
2646  2
2647  1
2648  2
2649  3
2650  0
2651  2
2652  4
2653  2
2654  3
2655  1
2656  2
2657  1
2658  0
2659  3
2660  1
2661  2
2662  2
2663  1
2664  0
2665  1
2666  2
2667  2
2668  1
2669  1
2670  1
2671  2
2672  2
2673  2
2674  0
2675  2
2676  4
2677  2
2678  1
2679  0
2680  2
2681  2
2682  0
2683  0
2684  0
2685  1
2686  3
2687  0
2688  0
2689  3
2690  0
2691  3
2692  1
2693  2
2694  2
2695  2
2696  0
2697  1
2698  1
2699  2
2700  1
2701  0
2702  4
2703  1
2704  0
2705  1
2706  1
2707  3
2708  0
2709  2
2710  0
2711  1
2712  2
2713  0
2714  2
2715  1
2716  3
2717  0
2718  1
2719  2
2720  1
2721  0
2722  0
2723  2
2724  1
2725  1
2726  1
2727  0
2728  0
2729  0
2730  1
2731  2
2732  0
2733  2
2734  2
2735  2
2736  1
2737  4
2738  0
2739  2
2740  0
2741  2
2742  1
2743  1
2744  2
2745  2
2746  3
2747  3
2748  0
2749  2
2750  0
2751  0
2752  2
2753  0
2754  3
2755  1
2756  1
2757  0
2758  1
2759  1
2760  1
2761  1
2762  3
2763  1
2764  1
2765  1
2766  2
2767  2
2768  0
2769  0
2770  2
2771  2
2772  1
2773  1
2774  2
2775  3
2776  0
2777  0
2778  2
2779  3
2780  0
2781  3
2782  1
2783  1
2784  1
2785  3
2786  5
2787  0
2788  1
2789  2
2790  1
2791  1
2792  1
2793  2
2794  1
2795  1
2796  2
2797  2
2798  2
2799  1
2800  1
2801  0
2802  2
2803  1
2804  1
2805  2
2806  3
2807  1
2808  0
2809  1
2810  2
2811  0
2812  1
2813  1
2814  3
2815  1
2816  1
2817  1
2818  0
2819  0
2820  1
2821  2
2822  0
2823  1
2824  3
2825  3
2826  0
2827  2
2828  2
2829  0
2830  3
2831  1
2832  1
2833  0
2834  2
2835  0
2836  0
2837  1
2838  2
2839  3
2840  1
2841  0
2842  1
2843  0
2844  0
2845  2
2846  5
2847  0
2848  1
2849  1
2850  0
2851  3
2852  3
2853  0
2854  0
2855  2
2856  0
2857  2
2858  0
2859  0
2860  1
2861  0
2862  2
2863  0
2864  1
2865  1
2866  3
2867  1
2868  1
2869  1
2870  0
2871  1
2872  1
2873  2
2874  2
2875  3
2876  1
2877  3
2878  1
2879  2
2880  2
2881  2
2882  1
2883  2
2884  0
2885  1
2886  3
2887  1
2888  3
2889  4
2890  1
2891  1
2892  4
2893  2
2894  1
2895  0
2896  0
2897  0
2898  3
2899  2
2900  2
2901  4
2902  0
2903  1
2904  0
2905  1
2906  3
2907  0
2908  3
2909  3
2910  3
2911  1
2912  3
2913  2
2914  0
2915  1
2916  2
2917  1
2918  2
2919  2
2920  1
2921  2
2922  1
2923  0
2924  1
2925  0
2926  1
2927  0
2928  1
2929  2
2930  1
2931  1
2932  1
2933  0
2934  1
2935  1
2936  2
2937  1
2938  3
2939  1
2940  0
2941  2
2942  1
2943  1
2944  1
2945  1
2946  0
2947  0
2948  1
2949  0
2950  2
2951  2
2952  3
2953  0
2954  3
2955  0
2956  1
2957  0
2958  0
2959  1
2960  3
2961  1
2962  3
2963  2
2964  0
2965  1
2966  1
2967  2
2968  0
2969  1
2970  0
2971  1
2972  0
2973  0
2974  0
2975  1
2976  3
2977  1
2978  2
2979  1
2980  1
2981  4
2982  1
2983  3
2984  1
2985  0
2986  0
2987  0
2988  0
2989  1
2990  1
2991  0
2992  0
2993  0
2994  3
2995  1
2996  1
2997  1
2998  3
2999  1
3000  1
3001  0
3002  0
3003  1
3004  1
3005  1
3006  1
3007  0
3008  3
3009  0
3010  1
3011  0
3012  3
3013  3
3014  0
3015  0
3016  3
3017  1
3018  2
3019  1
3020  2
3021  2
3022  1
3023  0
3024  0
3025  1
3026  2
3027  2
3028  0
3029  0
3030  2
3031  0
3032  2
3033  4
3034  1
3035  2
3036  2
3037  2
3038  1
3039  0
3040  2
3041  1
3042  0
3043  1
3044  1
3045  0
3046  1
3047  0
3048  1
3049  2
3050  3
3051  2
3052  0
3053  1
3054  1
3055  1
3056  1
3057  1
3058  0
3059  1
3060  2
3061  1
3062  0
3063  0
3064  2
3065  2
3066  1
3067  0
3068  3
3069  3
3070  3
3071  2
3072  0
3073  0
3074  1
3075  0
3076  3
3077  3
3078  0
3079  1
3080  0
3081  1
3082  1
3083  0
3084  1
3085  2
3086  0
3087  1
3088  2
3089  0
3090  1
3091  2
3092  0
3093  1
3094  1
3095  0
3096  3
3097  1
3098  1
3099  2
3100  4
3101  0
3102  0
3103  0
3104  1
3105  0
3106  1
3107  0
3108  0
3109  0
3110  2
3111  2
3112  1
3113  1
3114  1
3115  0
3116  1
3117  0
3118  1
3119  0
3120  1
3121  0
3122  0
3123  0
3124  0
3125  1
3126  0
3127  1
3128  1
3129  1
3130  0
3131  1
3132  1
3133  2
3134  0
3135  0
3136  0
3137  0
3138  2
3139  2
3140  2
3141  0
3142  1
3143  0
3144  3
3145  1
3146  1
3147  1
3148  0
3149  0
3150  4
3151  1
3152  2
3153  0
3154  1
3155  0
3156  1
3157  2
3158  2
3159  1
3160  2
3161  2
3162  2
3163  2
3164  1
3165  1
3166  1
3167  0
3168  1
3169  1
3170  0
3171  0
3172  1
3173  1
3174  1
3175  1
3176  2
3177  1
3178  1
3179  0
3180  0
3181  1
3182  2
3183  3
3184  0
3185  1
3186  1
3187  0
3188  0
3189  1
3190  2
3191  0
3192  1
3193  1
3194  0
3195  0
3196  1
3197  2
3198  0
3199  2
3200  1
3201  1
3202  1
3203  1
3204  0
3205  2
3206  1
3207  1
3208  1
3209  0
3210  3
3211  0
3212  0
3213  0
3214  3
3215  2
3216  0
3217  1
3218  3
3219  1
3220  0
3221  0
3222  0
3223  0
3224  1
3225  2
3226  1
3227  3
3228  0
3229  1
3230  1
3231  1
3232  1
3233  1
3234  1
3235  1
3236  2
3237  2
3238  0
3239  0
3240  0
3241  2
3242  1
3243  1
3244  2
3245  0
3246  2
3247  1
3248  3
3249  1
3250  1
3251  2
3252  0
3253  2
3254  1
3255  1
3256  1
3257  1
3258  0
3259  3
3260  0
3261  1
3262  0
3263  0
3264  1
3265  0
3266  1
3267  1
3268  1
3269  0
3270  3
3271  0
3272  0
3273  1
3274  0
3275  0
3276  0
3277  0
3278  0
3279  2
3280  0
3281  3
3282  0
3283  0
3284  1
3285  1
3286  1
3287  0
3288  0
3289  0
3290  2
3291  2
3292  0
3293  0
3294  2
3295  1
3296  1
3297  0
3298  2
3299  1
3300  0
3301  2
3302  2
3303  4
3304  0
3305  1
3306  1
3307  0
3308  1
3309  1
3310  0
3311  1
3312  0
3313  0
3314  0
3315  1
3316  2
3317  0
3318  2
3319  0
3320  0
3321  0
3322  1
3323  0
3324  0
3325  0
3326  1
3327  0
3328  2
3329  1
3330  0
3331  1
3332  0
3333  0
3334  2
3335  2
3336  1
3337  1
3338  0
3339  1
3340  1
3341  0
3342  0
3343  2
3344  2
3345  0
3346  0
3347  1
3348  2
3349  0
3350  1
3351  1
3352  1
3353  0
3354  1
3355  2
3356  3
3357  0
3358  0
3359  0
3360  0
3361  0
3362  0
3363  0
3364  3
3365  3
3366  1
3367  0
3368  3
3369  2
3370  1
3371  0
3372  0
3373  2
3374  2
3375  1
3376  5
3377  0
3378  0
3379  1
3380  0
3381  4
3382  0
3383  2
3384  0
3385  1
3386  1
3387  1
3388  0
3389  0
3390  0
3391  1
3392  3
3393  0
3394  1
3395  0
3396  0
3397  0
3398  0
3399  1
3400  1
3401  2
3402  2
3403  1
3404  0
3405  2
3406  2
3407  2
3408  0
3409  0
3410  1
3411  1
3412  1
3413  0
3414  2
3415  0
3416  1
3417  0
3418  1
3419  0
3420  1
3421  1
3422  0
3423  0
3424  1
3425  1
3426  2
3427  3
3428  2
3429  1
3430  0
3431  3
3432  1
3433  0
3434  0
3435  1
3436  1
3437  0
3438  0
3439  0
3440  0
3441  0
3442  0
3443  0
3444  0
3445  0
3446  2
3447  0
3448  1
3449  0
3450  0
3451  1
3452  0
3453  0
3454  2
3455  2
3456  1
3457  1
3458  0
3459  1
3460  2
3461  0
3462  0
3463  1
3464  1
3465  1
3466  2
3467  1
3468  1
3469  1
3470  1
3471  0
3472  0
3473  4
3474  1
3475  0
3476  0
3477  2
3478  1
3479  1
3480  1
3481  0
3482  2
3483  1
3484  0
3485  1
3486  0
3487  0
3488  0
3489  0
3490  1
3491  2
3492  0
3493  1
3494  1
3495  3
3496  0
3497  1
3498  0
3499  0
3500  0
3501  1
3502  3
3503  1
3504  1
3505  0
3506  0
3507  0
3508  0
3509  1
3510  0
3511  0
3512  0
3513  1
3514  3
3515  1
3516  0
3517  0
3518  0
3519  0
3520  1
3521  1
3522  0
3523  2
3524  0
3525  1
3526  0
3527  1
3528  2
3529  1
3530  0
3531  1
3532  0
3533  1
3534  1
3535  1
3536  0
3537  0
3538  0
3539  1
3540  1
3541  1
3542  0
3543  3
3544  1
3545  0
3546  1
3547  0
3548  0
3549  0
3550  0
3551  0
3552  0
3553  1
3554  1
3555  2
3556  1
3557  0
3558  0
3559  0
3560  2
3561  1
3562  0
3563  0
3564  1
3565  0
3566  1
3567  0
3568  1
3569  1
3570  1
3571  0
3572  0
3573  1
3574  2
3575  0
3576  0
3577  1
3578  0
3579  1
3580  0
3581  0
3582  0
3583  1
3584  0
3585  0
3586  1
3587  0
3588  1
3589  2
3590  1
3591  2
3592  0
3593  2
3594  1
3595  2
3596  0
3597  0
3598  0
3599  2
3600  1
3601  1
3602  0
3603  3
3604  0
3605  1
3606  0
3607  2
3608  0
3609  1
3610  0
3611  2
3612  0
3613  0
3614  1
3615  2
3616  1
3617  1
3618  2
3619  0
3620  0
3621  0
3622  1
3623  0
3624  1
3625  1
3626  3
3627  1
3628  0
3629  0
3630  2
3631  0
3632  0
3633  1
3634  1
3635  1
3636  0
3637  2
3638  0
3639  1
3640  1
3641  1
3642  0
3643  1
3644  0
3645  0
3646  0
3647  0
3648  0
3649  0
3650  0
3651  0
3652  0
3653  0
3654  1
3655  3
3656  2
3657  0
3658  2
3659  1
3660  0
3661  1
3662  0
3663  2
3664  0
3665  0
3666  0
3667  2
3668  0
3669  2
3670  2
3671  0
3672  1
3673  0
3674  1
3675  0
3676  0
3677  1
3678  1
3679  0
3680  0
3681  0
3682  0
3683  0
3684  0
3685  1
3686  1
3687  0
3688  0
3689  0
3690  0
3691  1
3692  1
3693  0
3694  1
3695  1
3696  1
3697  0
3698  1
3699  1
3700  2
3701  0
3702  0
3703  0
3704  1
3705  1
3706  1
3707  0
3708  0
3709  1
3710  1
3711  0
3712  0
3713  0
3714  1
3715  1
3716  1
3717  0
3718  2
3719  1
3720  0
3721  1
3722  1
3723  0
3724  2
3725  1
3726  2
3727  1
3728  3
3729  0
3730  0
3731  1
3732  0
3733  1
3734  0
3735  2
3736  0
3737  0
3738  1
3739  1
3740  0
3741  0
3742  1
3743  0
3744  0
3745  1
3746  3
3747  0
3748  1
3749  0
3750  1
3751  1
3752  1
3753  0
3754  1
3755  2
3756  1
3757  0
3758  1
3759  2
3760  1
3761  1
3762  0
3763  2
3764  3
3765  1
3766  1
3767  2
3768  3
3769  2
3770  3
3771  5
3772  2
3773  4
3774  7
3775  6
3776  3
3777  5
3778  7
3779  5
3780  6
3781  2
3782  3
3783  5
3784  5
3785  6
3786  3
3787  2
3788  3
3789  4
3790  2
3791  7
3792  5
3793  2
3794  2
3795  5
3796  5
3797  6
3798  1
3799  9
3800  4
3801  5
3802  13
3803  9
3804  6
3805  21
3806  17
3807  15
3808  16
3809  17
3810  12
3811  19
3812  19
3813  11
3814  15
3815  13
3816  18
3817  15
3818  2
3819  14
3820  5
3821  12
3822  13
3823  8
3824  11
3825  14
3826  4
3827  4
3828  5
3829  9
3830  5
3831  8
3832  5
3833  3
3834  3
3835  1
3836  0
3837  1
3838  2
3839  0
3840  0
3841  0
3842  0
3843  0
3844  0
3845  0
3846  0
3847  0
3848  0
3849  0
3850  0
3851  0
3852  0
3853  0
3854  0
3855  0
3856  0
3857  0
3858  0
3859  0
3860  0
3861  0
3862  0
3863  0
3864  0
3865  0
3866  0
3867  0
3868  0
3869  0
3870  0
3871  0
3872  0
3873  0
3874  0
3875  0
3876  0
3877  0
3878  0
3879  0
3880  0
3881  0
3882  0
3883  0
3884  0
3885  0
3886  0
3887  0
3888  0
3889  0
3890  0
3891  0
3892  0
3893  0
3894  0
3895  0
3896  0
3897  0
3898  0
3899  0
3900  0
3901  0
3902  0
3903  0
3904  0
3905  0
3906  0
3907  0
3908  0
3909  0
3910  0
3911  0
3912  0
3913  0
3914  0
3915  0
3916  0
3917  0
3918  0
3919  0
3920  0
3921  0
3922  0
3923  0
3924  0
3925  0
3926  0
3927  0
3928  0
3929  0
3930  0
3931  0
3932  0
3933  0
3934  0
3935  0
3936  0
3937  0
3938  0
3939  0
3940  0
3941  0
3942  0
3943  0
3944  0
3945  0
3946  0
3947  0
3948  0
3949  0
3950  0
3951  0
3952  0
3953  0
3954  0
3955  0
3956  0
3957  0
3958  0
3959  0
3960  0
3961  0
3962  0
3963  0
3964  0
3965  0
3966  0
3967  0
3968  0
3969  0
3970  0
3971  0
3972  0
3973  0
3974  0
3975  0
3976  0
3977  0
3978  0
3979  0
3980  0
3981  0
3982  0
3983  0
3984  0
3985  0
3986  0
3987  0
3988  0
3989  0
3990  0
3991  0
3992  0
3993  0
3994  0
3995  0
3996  0
3997  0
3998  0
3999  0
4000  0
4001  0
4002  0
4003  0
4004  0
4005  0
4006  0
4007  0
4008  0
4009  0
4010  0
4011  0
4012  0
4013  0
4014  0
4015  0
4016  0
4017  0
4018  0
4019  0
4020  0
4021  0
4022  0
4023  0
4024  0
4025  0
4026  0
4027  0
4028  0
4029  0
4030  0
4031  0
4032  0
4033  0
4034  0
4035  0
4036  0
4037  0
4038  0
4039  0
4040  0
4041  0
4042  0
4043  0
4044  0
4045  0
4046  0
4047  0
4048  0
4049  0
4050  0
4051  0
4052  0
4053  0
4054  0
4055  0
4056  0
4057  0
4058  0
4059  0
4060  0
4061  0
4062  0
4063  0
4064  0
4065  0
4066  0
4067  0
4068  0
4069  0
4070  0
4071  0
4072  0
4073  0
4074  0
4075  0
4076  0
4077  0
4078  0
4079  0
4080  0
4081  0
4082  0
4083  0
4084  0
4085  0
4086  0
4087  0
4088  0
4089  0
4090  0
4091  0
4092  0
4093  0
4094  0
4095  0
