0  0
1  0
2  0
3  0
4  0
5  0
6  0
7  0
8  0
9  0
10  0
11  0
12  0
13  0
14  0
15  0
16  0
17  0
18  0
19  0
20  0
21  0
22  0
23  0
24  0
25  0
26  0
27  0
28  0
29  0
30  0
31  0
32  0
33  0
34  0
35  0
36  0
37  0
38  0
39  0
40  0
41  0
42  0
43  0
44  0
45  0
46  0
47  0
48  0
49  0
50  0
51  0
52  0
53  0
54  0
55  0
56  0
57  0
58  0
59  0
60  0
61  0
62  0
63  0
64  0
65  0
66  0
67  0
68  0
69  0
70  0
71  0
72  0
73  0
74  0
75  0
76  0
77  0
78  0
79  0
80  0
81  0
82  0
83  0
84  0
85  0
86  0
87  0
88  0
89  0
90  0
91  0
92  0
93  0
94  0
95  0
96  0
97  0
98  0
99  0
100  0
101  0
102  0
103  0
104  0
105  0
106  0
107  0
108  0
109  0
110  0
111  0
112  0
113  0
114  0
115  0
116  0
117  0
118  0
119  0
120  0
121  0
122  0
123  0
124  0
125  0
126  0
127  0
128  0
129  0
130  0
131  0
132  0
133  0
134  0
135  0
136  0
137  0
138  0
139  0
140  0
141  0
142  0
143  0
144  0
145  0
146  0
147  0
148  0
149  0
150  0
151  0
152  0
153  0
154  0
155  0
156  0
157  0
158  0
159  0
160  0
161  0
162  0
163  0
164  0
165  0
166  0
167  0
168  0
169  0
170  0
171  0
172  0
173  0
174  0
175  0
176  0
177  0
178  0
179  0
180  0
181  0
182  0
183  0
184  1
185  0
186  0
187  1
188  1
189  0
190  1
191  0
192  1
193  2
194  0
195  1
196  1
197  1
198  0
199  0
200  0
201  0
202  0
203  0
204  1
205  0
206  0
207  4
208  0
209  0
210  0
211  1
212  1
213  2
214  0
215  0
216  1
217  1
218  0
219  1
220  0
221  1
222  0
223  1
224  1
225  0
226  0
227  1
228  1
229  1
230  2
231  1
232  3
233  6
234  12
235  13
236  21
237  31
238  68
239  67
240  157
241  167
242  257
243  280
244  352
245  440
246  438
247  480
248  543
249  513
250  577
251  506
252  526
253  560
254  537
255  528
256  466
257  491
258  491
259  488
260  518
261  515
262  517
263  471
264  488
265  444
266  471
267  452
268  452
269  433
270  445
271  459
272  404
273  474
274  438
275  424
276  411
277  436
278  408
279  414
280  431
281  425
282  395
283  386
284  418
285  406
286  405
287  414
288  376
289  394
290  417
291  379
292  405
293  374
294  375
295  362
296  357
297  378
298  383
299  361
300  341
301  385
302  379
303  356
304  355
305  322
306  336
307  350
308  312
309  348
310  290
311  363
312  344
313  306
314  339
315  313
316  311
317  316
318  315
319  315
320  299
321  285
322  325
323  301
324  284
325  318
326  273
327  280
328  252
329  272
330  255
331  265
332  282
333  270
334  276
335  281
336  283
337  265
338  270
339  270
340  280
341  251
342  263
343  288
344  251
345  267
346  235
347  249
348  258
349  252
350  252
351  249
352  245
353  277
354  244
355  269
356  268
357  261
358  215
359  235
360  258
361  238
362  241
363  240
364  265
365  249
366  230
367  255
368  228
369  256
370  212
371  219
372  240
373  227
374  223
375  228
376  211
377  225
378  221
379  218
380  215
381  228
382  240
383  208
384  239
385  220
386  247
387  211
388  203
389  224
390  202
391  230
392  201
393  209
394  221
395  208
396  198
397  191
398  199
399  181
400  196
401  189
402  185
403  187
404  201
405  155
406  187
407  174
408  206
409  166
410  170
411  157
412  174
413  159
414  152
415  157
416  157
417  165
418  164
419  160
420  168
421  155
422  151
423  141
424  159
425  148
426  151
427  134
428  155
429  128
430  148
431  132
432  151
433  163
434  144
435  114
436  118
437  128
438  121
439  123
440  136
441  118
442  115
443  132
444  126
445  135
446  123
447  121
448  111
449  113
450  128
451  110
452  108
453  117
454  117
455  109
456  100
457  111
458  107
459  108
460  88
461  125
462  106
463  105
464  114
465  106
466  94
467  98
468  110
469  101
470  103
471  109
472  90
473  124
474  112
475  88
476  87
477  92
478  86
479  106
480  94
481  100
482  94
483  108
484  99
485  79
486  98
487  92
488  102
489  81
490  96
491  80
492  101
493  97
494  89
495  89
496  74
497  89
498  100
499  85
500  91
501  99
502  71
503  83
504  79
505  90
506  90
507  97
508  86
509  89
510  89
511  84
512  78
513  79
514  92
515  93
516  75
517  86
518  88
519  89
520  93
521  73
522  81
523  93
524  95
525  79
526  82
527  82
528  100
529  68
530  85
531  85
532  100
533  70
534  87
535  93
536  104
537  80
538  77
539  73
540  80
541  76
542  88
543  90
544  90
545  80
546  70
547  90
548  84
549  67
550  81
551  69
552  75
553  83
554  69
555  72
556  74
557  85
558  93
559  75
560  73
561  73
562  71
563  61
564  96
565  88
566  83
567  80
568  75
569  58
570  54
571  68
572  81
573  71
574  81
575  88
576  82
577  76
578  65
579  72
580  72
581  75
582  71
583  78
584  64
585  63
586  73
587  79
588  55
589  66
590  67
591  70
592  74
593  61
594  68
595  62
596  75
597  84
598  69
599  70
600  66
601  75
602  80
603  63
604  67
605  83
606  66
607  55
608  55
609  58
610  63
611  67
612  69
613  51
614  53
615  60
616  64
617  73
618  57
619  72
620  55
621  68
622  62
623  62
624  68
625  70
626  60
627  59
628  70
629  64
630  66
631  56
632  56
633  73
634  47
635  64
636  60
637  61
638  68
639  64
640  66
641  62
642  62
643  50
644  52
645  62
646  62
647  51
648  53
649  50
650  55
651  44
652  39
653  57
654  62
655  67
656  57
657  49
658  52
659  53
660  40
661  45
662  39
663  54
664  53
665  47
666  56
667  59
668  38
669  48
670  43
671  50
672  53
673  55
674  41
675  44
676  50
677  48
678  33
679  44
680  45
681  42
682  36
683  44
684  46
685  44
686  40
687  37
688  50
689  47
690  29
691  35
692  38
693  32
694  36
695  37
696  36
697  35
698  44
699  40
700  41
701  37
702  31
703  40
704  36
705  31
706  45
707  54
708  36
709  33
710  33
711  35
712  42
713  33
714  38
715  44
716  38
717  28
718  30
719  24
720  25
721  33
722  40
723  29
724  32
725  34
726  40
727  37
728  32
729  37
730  35
731  40
732  39
733  26
734  33
735  37
736  26
737  37
738  41
739  17
740  27
741  32
742  32
743  27
744  16
745  29
746  33
747  35
748  39
749  31
750  25
751  25
752  32
753  32
754  28
755  33
756  31
757  20
758  27
759  26
760  31
761  20
762  32
763  28
764  18
765  29
766  25
767  17
768  25
769  33
770  23
771  24
772  17
773  25
774  26
775  31
776  24
777  27
778  22
779  30
780  33
781  36
782  26
783  26
784  24
785  27
786  23
787  25
788  16
789  27
790  18
791  23
792  16
793  22
794  21
795  17
796  23
797  24
798  19
799  21
800  22
801  23
802  19
803  10
804  18
805  19
806  26
807  20
808  17
809  23
810  17
811  11
812  22
813  16
814  22
815  21
816  24
817  19
818  17
819  15
820  20
821  11
822  15
823  19
824  19
825  21
826  23
827  12
828  10
829  14
830  15
831  13
832  13
833  15
834  13
835  13
836  16
837  5
838  11
839  6
840  9
841  13
842  10
843  8
844  13
845  10
846  8
847  14
848  9
849  10
850  10
851  11
852  13
853  12
854  10
855  14
856  14
857  12
858  9
859  9
860  5
861  14
862  11
863  10
864  6
865  11
866  12
867  7
868  7
869  11
870  12
871  15
872  7
873  14
874  7
875  10
876  4
877  10
878  8
879  8
880  9
881  14
882  14
883  10
884  7
885  6
886  11
887  12
888  12
889  10
890  11
891  9
892  8
893  6
894  6
895  11
896  6
897  6
898  6
899  9
900  9
901  9
902  7
903  14
904  6
905  12
906  7
907  7
908  2
909  6
910  7
911  4
912  6
913  5
914  11
915  5
916  8
917  3
918  7
919  11
920  5
921  9
922  4
923  12
924  5
925  6
926  6
927  7
928  3
929  6
930  9
931  9
932  4
933  3
934  4
935  6
936  5
937  4
938  3
939  7
940  7
941  5
942  8
943  10
944  3
945  9
946  4
947  10
948  6
949  6
950  4
951  8
952  6
953  5
954  4
955  7
956  4
957  5
958  6
959  10
960  7
961  4
962  7
963  9
964  8
965  3
966  5
967  3
968  3
969  4
970  6
971  3
972  7
973  5
974  4
975  4
976  6
977  4
978  3
979  4
980  5
981  5
982  5
983  7
984  9
985  7
986  7
987  8
988  3
989  4
990  3
991  8
992  3
993  4
994  2
995  8
996  9
997  9
998  4
999  8
1000  6
1001  7
1002  2
1003  8
1004  7
1005  5
1006  7
1007  6
1008  6
1009  6
1010  7
1011  5
1012  7
1013  5
1014  5
1015  8
1016  5
1017  8
1018  5
1019  7
1020  5
1021  7
1022  5
1023  7
1024  6
1025  5
1026  4
1027  9
1028  5
1029  3
1030  2
1031  2
1032  7
1033  6
1034  5
1035  5
1036  4
1037  3
1038  7
1039  4
1040  9
1041  3
1042  2
1043  2
1044  2
1045  2
1046  4
1047  2
1048  3
1049  8
1050  6
1051  5
1052  8
1053  3
1054  3
1055  4
1056  5
1057  7
1058  7
1059  4
1060  9
1061  4
1062  1
1063  3
1064  4
1065  5
1066  1
1067  5
1068  4
1069  4
1070  5
1071  6
1072  6
1073  7
1074  8
1075  8
1076  6
1077  5
1078  1
1079  2
1080  5
1081  5
1082  7
1083  3
1084  6
1085  7
1086  3
1087  5
1088  6
1089  4
1090  0
1091  4
1092  4
1093  4
1094  4
1095  4
1096  6
1097  5
1098  3
1099  3
1100  2
1101  7
1102  3
1103  3
1104  1
1105  3
1106  0
1107  4
1108  3
1109  2
1110  4
1111  2
1112  2
1113  3
1114  2
1115  3
1116  2
1117  3
1118  2
1119  3
1120  2
1121  2
1122  5
1123  1
1124  1
1125  3
1126  1
1127  3
1128  1
1129  1
1130  2
1131  3
1132  2
1133  2
1134  2
1135  2
1136  4
1137  2
1138  3
1139  0
1140  2
1141  4
1142  4
1143  0
1144  5
1145  2
1146  7
1147  6
1148  0
1149  0
1150  2
1151  3
1152  4
1153  2
1154  4
1155  3
1156  4
1157  0
1158  3
1159  4
1160  2
1161  1
1162  2
1163  1
1164  2
1165  0
1166  1
1167  1
1168  1
1169  1
1170  1
1171  5
1172  4
1173  1
1174  2
1175  1
1176  0
1177  2
1178  1
1179  2
1180  0
1181  2
1182  2
1183  1
1184  1
1185  1
1186  1
1187  1
1188  2
1189  2
1190  1
1191  2
1192  0
1193  1
1194  1
1195  2
1196  1
1197  2
1198  1
1199  1
1200  0
1201  1
1202  3
1203  0
1204  2
1205  2
1206  4
1207  0
1208  2
1209  2
1210  1
1211  1
1212  3
1213  0
1214  1
1215  3
1216  2
1217  1
1218  2
1219  1
1220  0
1221  0
1222  1
1223  2
1224  0
1225  2
1226  1
1227  2
1228  1
1229  2
1230  3
1231  0
1232  1
1233  0
1234  1
1235  2
1236  0
1237  1
1238  3
1239  4
1240  3
1241  1
1242  1
1243  2
1244  1
1245  0
1246  3
1247  3
1248  0
1249  1
1250  1
1251  0
1252  0
1253  0
1254  1
1255  1
1256  1
1257  0
1258  1
1259  1
1260  0
1261  0
1262  1
1263  2
1264  1
1265  0
1266  2
1267  2
1268  0
1269  0
1270  0
1271  0
1272  2
1273  0
1274  1
1275  0
1276  1
1277  1
1278  0
1279  0
1280  2
1281  0
1282  0
1283  0
1284  1
1285  0
1286  0
1287  2
1288  0
1289  3
1290  0
1291  1
1292  1
1293  0
1294  1
1295  1
1296  3
1297  0
1298  1
1299  0
1300  2
1301  0
1302  1
1303  0
1304  1
1305  1
1306  0
1307  2
1308  0
1309  0
1310  1
1311  1
1312  1
1313  0
1314  1
1315  1
1316  0
1317  1
1318  2
1319  0
1320  3
1321  0
1322  2
1323  2
1324  1
1325  2
1326  0
1327  1
1328  0
1329  1
1330  1
1331  0
1332  0
1333  0
1334  1
1335  0
1336  1
1337  1
1338  2
1339  1
1340  0
1341  2
1342  0
1343  0
1344  0
1345  1
1346  2
1347  0
1348  1
1349  1
1350  0
1351  1
1352  0
1353  2
1354  2
1355  0
1356  2
1357  1
1358  2
1359  2
1360  1
1361  1
1362  1
1363  0
1364  1
1365  0
1366  0
1367  0
1368  0
1369  0
1370  0
1371  2
1372  0
1373  2
1374  0
1375  0
1376  0
1377  0
1378  1
1379  0
1380  0
1381  3
1382  0
1383  0
1384  1
1385  0
1386  1
1387  2
1388  0
1389  0
1390  0
1391  0
1392  2
1393  2
1394  0
1395  1
1396  2
1397  0
1398  0
1399  0
1400  0
1401  1
1402  1
1403  2
1404  1
1405  1
1406  0
1407  1
1408  0
1409  1
1410  2
1411  0
1412  0
1413  1
1414  1
1415  0
1416  0
1417  0
1418  0
1419  1
1420  0
1421  3
1422  0
1423  3
1424  0
1425  2
1426  0
1427  1
1428  1
1429  1
1430  0
1431  0
1432  3
1433  1
1434  0
1435  0
1436  2
1437  1
1438  0
1439  0
1440  0
1441  1
1442  1
1443  0
1444  0
1445  0
1446  0
1447  0
1448  0
1449  0
1450  1
1451  2
1452  1
1453  0
1454  2
1455  0
1456  1
1457  0
1458  0
1459  0
1460  0
1461  0
1462  0
1463  0
1464  1
1465  1
1466  0
1467  0
1468  0
1469  0
1470  0
1471  2
1472  0
1473  0
1474  1
1475  1
1476  0
1477  0
1478  0
1479  0
1480  1
1481  0
1482  0
1483  0
1484  1
1485  0
1486  1
1487  0
1488  1
1489  0
1490  0
1491  0
1492  1
1493  0
1494  0
1495  0
1496  1
1497  1
1498  0
1499  0
1500  0
1501  0
1502  1
1503  0
1504  1
1505  0
1506  1
1507  0
1508  1
1509  0
1510  0
1511  0
1512  1
1513  1
1514  0
1515  0
1516  0
1517  0
1518  1
1519  1
1520  1
1521  0
1522  0
1523  1
1524  0
1525  0
1526  1
1527  0
1528  2
1529  1
1530  0
1531  1
1532  0
1533  0
1534  0
1535  0
1536  0
1537  2
1538  0
1539  0
1540  0
1541  2
1542  0
1543  0
1544  1
1545  0
1546  0
1547  1
1548  0
1549  1
1550  1
1551  0
1552  0
1553  0
1554  0
1555  0
1556  0
1557  2
1558  1
1559  0
1560  0
1561  0
1562  0
1563  0
1564  0
1565  1
1566  1
1567  0
1568  0
1569  0
1570  0
1571  1
1572  1
1573  1
1574  0
1575  0
1576  0
1577  0
1578  1
1579  0
1580  0
1581  2
1582  1
1583  1
1584  1
1585  0
1586  0
1587  0
1588  0
1589  0
1590  0
1591  0
1592  0
1593  0
1594  1
1595  0
1596  1
1597  0
1598  0
1599  0
1600  0
1601  0
1602  0
1603  0
1604  0
1605  0
1606  0
1607  1
1608  0
1609  0
1610  0
1611  0
1612  1
1613  1
1614  0
1615  0
1616  0
1617  0
1618  1
1619  0
1620  0
1621  0
1622  0
1623  1
1624  0
1625  0
1626  1
1627  0
1628  0
1629  1
1630  0
1631  1
1632  0
1633  0
1634  0
1635  1
1636  0
1637  1
1638  0
1639  0
1640  0
1641  0
1642  0
1643  0
1644  1
1645  0
1646  0
1647  1
1648  2
1649  2
1650  0
1651  1
1652  1
1653  1
1654  0
1655  1
1656  0
1657  0
1658  1
1659  0
1660  0
1661  0
1662  1
1663  0
1664  0
1665  0
1666  1
1667  0
1668  1
1669  0
1670  1
1671  1
1672  0
1673  0
1674  0
1675  0
1676  0
1677  0
1678  0
1679  0
1680  0
1681  0
1682  1
1683  1
1684  0
1685  0
1686  0
1687  1
1688  0
1689  1
1690  0
1691  0
1692  1
1693  0
1694  0
1695  0
1696  0
1697  0
1698  1
1699  0
1700  1
1701  0
1702  0
1703  0
1704  1
1705  1
1706  0
1707  0
1708  0
1709  0
1710  0
1711  0
1712  0
1713  0
1714  0
1715  1
1716  1
1717  0
1718  0
1719  1
1720  0
1721  1
1722  1
1723  1
1724  0
1725  0
1726  1
1727  0
1728  1
1729  0
1730  0
1731  1
1732  0
1733  0
1734  1
1735  0
1736  2
1737  0
1738  1
1739  0
1740  1
1741  2
1742  0
1743  1
1744  0
1745  1
1746  0
1747  0
1748  0
1749  0
1750  0
1751  0
1752  3
1753  1
1754  0
1755  0
1756  0
1757  0
1758  2
1759  0
1760  0
1761  2
1762  1
1763  1
1764  0
1765  0
1766  2
1767  0
1768  1
1769  0
1770  1
1771  0
1772  0
1773  0
1774  0
1775  1
1776  1
1777  1
1778  1
1779  0
1780  0
1781  0
1782  0
1783  2
1784  0
1785  0
1786  0
1787  0
1788  0
1789  0
1790  0
1791  0
1792  0
1793  0
1794  0
1795  1
1796  1
1797  1
1798  1
1799  0
1800  0
1801  0
1802  0
1803  1
1804  0
1805  2
1806  2
1807  1
1808  0
1809  1
1810  0
1811  0
1812  2
1813  1
1814  2
1815  1
1816  0
1817  1
1818  1
1819  0
1820  1
1821  0
1822  2
1823  1
1824  0
1825  0
1826  0
1827  1
1828  2
1829  0
1830  0
1831  0
1832  1
1833  1
1834  0
1835  3
1836  0
1837  0
1838  0
1839  0
1840  0
1841  0
1842  0
1843  0
1844  1
1845  0
1846  3
1847  1
1848  0
1849  0
1850  1
1851  0
1852  1
1853  1
1854  0
1855  1
1856  0
1857  1
1858  0
1859  0
1860  0
1861  0
1862  0
1863  0
1864  0
1865  1
1866  0
1867  1
1868  1
1869  1
1870  0
1871  0
1872  0
1873  1
1874  3
1875  0
1876  1
1877  1
1878  1
1879  0
1880  1
1881  0
1882  0
1883  1
1884  0
1885  0
1886  0
1887  0
1888  1
1889  0
1890  3
1891  2
1892  1
1893  0
1894  0
1895  1
1896  0
1897  2
1898  0
1899  1
1900  0
1901  0
1902  1
1903  0
1904  0
1905  1
1906  0
1907  1
1908  0
1909  2
1910  1
1911  0
1912  0
1913  1
1914  0
1915  0
1916  1
1917  0
1918  0
1919  0
1920  1
1921  0
1922  0
1923  0
1924  0
1925  0
1926  1
1927  0
1928  0
1929  2
1930  0
1931  1
1932  2
1933  0
1934  1
1935  0
1936  1
1937  2
1938  1
1939  0
1940  0
1941  0
1942  1
1943  0
1944  0
1945  3
1946  0
1947  0
1948  1
1949  0
1950  1
1951  0
1952  2
1953  0
1954  0
1955  1
1956  1
1957  0
1958  2
1959  1
1960  0
1961  1
1962  0
1963  2
1964  3
1965  0
1966  0
1967  0
1968  2
1969  0
1970  0
1971  1
1972  0
1973  0
1974  0
1975  0
1976  1
1977  0
1978  0
1979  0
1980  0
1981  2
1982  0
1983  0
1984  1
1985  0
1986  0
1987  1
1988  0
1989  1
1990  1
1991  0
1992  0
1993  1
1994  2
1995  0
1996  0
1997  0
1998  1
1999  0
2000  1
2001  5
2002  0
2003  0
2004  1
2005  1
2006  1
2007  1
2008  0
2009  0
2010  0
2011  1
2012  1
2013  0
2014  1
2015  1
2016  1
2017  1
2018  0
2019  0
2020  1
2021  1
2022  0
2023  0
2024  0
2025  0
2026  0
2027  1
2028  0
2029  0
2030  2
2031  0
2032  2
2033  3
2034  1
2035  3
2036  0
2037  1
2038  0
2039  0
2040  1
2041  0
2042  0
2043  1
2044  0
2045  0
2046  0
2047  0
2048  0
2049  0
2050  0
2051  1
2052  1
2053  0
2054  1
2055  1
2056  1
2057  0
2058  0
2059  1
2060  0
2061  0
2062  1
2063  0
2064  0
2065  0
2066  1
2067  1
2068  0
2069  2
2070  0
2071  0
2072  1
2073  1
2074  0
2075  2
2076  1
2077  0
2078  0
2079  0
2080  0
2081  0
2082  1
2083  1
2084  0
2085  1
2086  1
2087  0
2088  0
2089  1
2090  0
2091  2
2092  0
2093  0
2094  1
2095  0
2096  0
2097  3
2098  2
2099  1
2100  0
2101  1
2102  0
2103  2
2104  1
2105  0
2106  1
2107  1
2108  0
2109  0
2110  0
2111  0
2112  1
2113  0
2114  1
2115  0
2116  1
2117  0
2118  1
2119  1
2120  2
2121  1
2122  0
2123  0
2124  1
2125  1
2126  0
2127  2
2128  0
2129  2
2130  1
2131  0
2132  0
2133  1
2134  0
2135  0
2136  1
2137  0
2138  1
2139  1
2140  1
2141  2
2142  0
2143  4
2144  1
2145  1
2146  0
2147  0
2148  0
2149  0
2150  0
2151  0
2152  0
2153  0
2154  0
2155  0
2156  1
2157  1
2158  0
2159  2
2160  2
2161  0
2162  1
2163  0
2164  0
2165  0
2166  1
2167  1
2168  0
2169  0
2170  0
2171  1
2172  0
2173  1
2174  1
2175  1
2176  1
2177  1
2178  2
2179  0
2180  1
2181  0
2182  1
2183  1
2184  2
2185  1
2186  2
2187  1
2188  1
2189  0
2190  1
2191  0
2192  2
2193  0
2194  1
2195  0
2196  0
2197  1
2198  0
2199  1
2200  1
2201  2
2202  1
2203  0
2204  0
2205  1
2206  0
2207  1
2208  1
2209  0
2210  0
2211  0
2212  0
2213  1
2214  1
2215  0
2216  0
2217  0
2218  1
2219  0
2220  0
2221  1
2222  2
2223  0
2224  0
2225  0
2226  1
2227  0
2228  1
2229  0
2230  1
2231  0
2232  0
2233  1
2234  1
2235  0
2236  0
2237  0
2238  1
2239  0
2240  0
2241  0
2242  0
2243  0
2244  1
2245  0
2246  0
2247  0
2248  0
2249  1
2250  0
2251  1
2252  0
2253  1
2254  0
2255  0
2256  2
2257  0
2258  0
2259  1
2260  0
2261  0
2262  2
2263  1
2264  0
2265  1
2266  1
2267  0
2268  0
2269  0
2270  0
2271  0
2272  0
2273  0
2274  0
2275  1
2276  1
2277  0
2278  0
2279  1
2280  1
2281  0
2282  0
2283  0
2284  1
2285  1
2286  1
2287  0
2288  1
2289  0
2290  0
2291  0
2292  2
2293  0
2294  0
2295  1
2296  2
2297  0
2298  1
2299  0
2300  0
2301  1
2302  0
2303  0
2304  2
2305  2
2306  2
2307  0
2308  1
2309  0
2310  1
2311  0
2312  0
2313  0
2314  1
2315  2
2316  1
2317  0
2318  0
2319  1
2320  0
2321  1
2322  0
2323  0
2324  0
2325  3
2326  0
2327  1
2328  0
2329  0
2330  0
2331  1
2332  1
2333  0
2334  2
2335  2
2336  0
2337  0
2338  0
2339  0
2340  0
2341  0
2342  0
2343  0
2344  0
2345  1
2346  1
2347  1
2348  0
2349  0
2350  0
2351  0
2352  0
2353  1
2354  2
2355  0
2356  1
2357  0
2358  0
2359  0
2360  1
2361  1
2362  0
2363  0
2364  1
2365  0
2366  0
2367  0
2368  2
2369  1
2370  0
2371  1
2372  0
2373  0
2374  0
2375  1
2376  0
2377  0
2378  0
2379  1
2380  0
2381  1
2382  0
2383  0
2384  1
2385  1
2386  0
2387  0
2388  2
2389  1
2390  0
2391  1
2392  0
2393  0
2394  1
2395  0
2396  1
2397  1
2398  0
2399  0
2400  2
2401  0
2402  0
2403  1
2404  1
2405  0
2406  0
2407  0
2408  0
2409  0
2410  0
2411  0
2412  0
2413  0
2414  0
2415  1
2416  1
2417  1
2418  1
2419  0
2420  0
2421  0
2422  0
2423  1
2424  0
2425  4
2426  1
2427  1
2428  0
2429  0
2430  0
2431  2
2432  0
2433  0
2434  1
2435  1
2436  1
2437  0
2438  0
2439  2
2440  0
2441  1
2442  2
2443  2
2444  1
2445  1
2446  0
2447  0
2448  0
2449  0
2450  0
2451  1
2452  0
2453  0
2454  1
2455  0
2456  0
2457  3
2458  0
2459  0
2460  0
2461  2
2462  0
2463  0
2464  0
2465  2
2466  0
2467  2
2468  2
2469  0
2470  0
2471  0
2472  1
2473  0
2474  0
2475  0
2476  0
2477  0
2478  1
2479  1
2480  0
2481  0
2482  1
2483  0
2484  1
2485  0
2486  1
2487  0
2488  0
2489  0
2490  0
2491  0
2492  0
2493  2
2494  2
2495  0
2496  0
2497  1
2498  1
2499  2
2500  0
2501  0
2502  0
2503  0
2504  0
2505  0
2506  0
2507  1
2508  3
2509  0
2510  0
2511  1
2512  1
2513  0
2514  1
2515  0
2516  0
2517  0
2518  0
2519  0
2520  0
2521  0
2522  0
2523  2
2524  0
2525  2
2526  0
2527  0
2528  2
2529  1
2530  1
2531  1
2532  1
2533  0
2534  2
2535  0
2536  0
2537  1
2538  0
2539  0
2540  2
2541  2
2542  0
2543  1
2544  0
2545  0
2546  0
2547  0
2548  1
2549  1
2550  1
2551  1
2552  0
2553  2
2554  1
2555  1
2556  0
2557  0
2558  0
2559  0
2560  0
2561  0
2562  0
2563  0
2564  0
2565  0
2566  1
2567  0
2568  0
2569  0
2570  1
2571  0
2572  1
2573  0
2574  0
2575  1
2576  1
2577  0
2578  0
2579  0
2580  0
2581  1
2582  2
2583  0
2584  0
2585  0
2586  1
2587  0
2588  2
2589  0
2590  2
2591  1
2592  1
2593  1
2594  0
2595  0
2596  0
2597  0
2598  0
2599  0
2600  1
2601  2
2602  0
2603  1
2604  1
2605  0
2606  0
2607  0
2608  0
2609  0
2610  0
2611  2
2612  0
2613  0
2614  1
2615  2
2616  1
2617  1
2618  0
2619  0
2620  0
2621  1
2622  0
2623  1
2624  0
2625  0
2626  0
2627  0
2628  1
2629  0
2630  0
2631  2
2632  0
2633  0
2634  0
2635  0
2636  1
2637  1
2638  0
2639  0
2640  1
2641  2
2642  0
2643  0
2644  0
2645  1
2646  1
2647  0
2648  0
2649  3
2650  0
2651  0
2652  2
2653  1
2654  2
2655  0
2656  1
2657  1
2658  0
2659  1
2660  0
2661  0
2662  0
2663  1
2664  0
2665  1
2666  0
2667  1
2668  0
2669  0
2670  0
2671  0
2672  0
2673  0
2674  0
2675  1
2676  3
2677  0
2678  0
2679  0
2680  1
2681  1
2682  0
2683  0
2684  0
2685  0
2686  2
2687  0
2688  0
2689  0
2690  0
2691  1
2692  1
2693  0
2694  1
2695  0
2696  0
2697  1
2698  0
2699  2
2700  0
2701  0
2702  4
2703  0
2704  0
2705  0
2706  0
2707  0
2708  0
2709  0
2710  0
2711  1
2712  1
2713  0
2714  1
2715  0
2716  0
2717  0
2718  1
2719  1
2720  0
2721  0
2722  0
2723  0
2724  0
2725  0
2726  1
2727  0
2728  0
2729  0
2730  1
2731  1
2732  0
2733  1
2734  0
2735  0
2736  0
2737  1
2738  0
2739  1
2740  0
2741  0
2742  1
2743  0
2744  2
2745  0
2746  0
2747  2
2748  0
2749  1
2750  0
2751  0
2752  1
2753  0
2754  1
2755  0
2756  0
2757  0
2758  1
2759  0
2760  1
2761  0
2762  1
2763  1
2764  0
2765  0
2766  1
2767  1
2768  0
2769  0
2770  1
2771  0
2772  0
2773  1
2774  1
2775  1
2776  0
2777  0
2778  2
2779  0
2780  0
2781  2
2782  0
2783  0
2784  1
2785  2
2786  0
2787  0
2788  0
2789  2
2790  0
2791  0
2792  0
2793  2
2794  0
2795  0
2796  1
2797  0
2798  0
2799  0
2800  0
2801  0
2802  0
2803  1
2804  0
2805  2
2806  2
2807  0
2808  0
2809  1
2810  0
2811  0
2812  1
2813  0
2814  1
2815  1
2816  0
2817  0
2818  0
2819  0
2820  0
2821  0
2822  0
2823  1
2824  1
2825  2
2826  0
2827  0
2828  1
2829  0
2830  2
2831  1
2832  1
2833  0
2834  0
2835  0
2836  0
2837  1
2838  0
2839  0
2840  0
2841  0
2842  1
2843  0
2844  0
2845  1
2846  3
2847  0
2848  1
2849  1
2850  0
2851  1
2852  1
2853  0
2854  0
2855  0
2856  0
2857  0
2858  0
2859  0
2860  1
2861  0
2862  0
2863  0
2864  0
2865  0
2866  0
2867  0
2868  0
2869  1
2870  0
2871  1
2872  0
2873  0
2874  1
2875  1
2876  0
2877  0
2878  0
2879  1
2880  1
2881  0
2882  0
2883  1
2884  0
2885  0
2886  2
2887  1
2888  1
2889  1
2890  0
2891  1
2892  3
2893  1
2894  0
2895  0
2896  0
2897  0
2898  1
2899  0
2900  1
2901  1
2902  0
2903  0
2904  0
2905  1
2906  0
2907  0
2908  0
2909  0
2910  1
2911  0
2912  1
2913  2
2914  0
2915  0
2916  0
2917  1
2918  0
2919  2
2920  0
2921  1
2922  0
2923  0
2924  1
2925  0
2926  0
2927  0
2928  0
2929  1
2930  1
2931  0
2932  0
2933  0
2934  1
2935  1
2936  0
2937  1
2938  1
2939  0
2940  0
2941  0
2942  1
2943  0
2944  0
2945  0
2946  0
2947  0
2948  1
2949  0
2950  0
2951  1
2952  0
2953  0
2954  2
2955  0
2956  1
2957  0
2958  0
2959  1
2960  1
2961  0
2962  0
2963  0
2964  0
2965  0
2966  1
2967  0
2968  0
2969  1
2970  0
2971  0
2972  0
2973  0
2974  0
2975  1
2976  0
2977  1
2978  1
2979  0
2980  1
2981  2
2982  1
2983  1
2984  0
2985  0
2986  0
2987  0
2988  0
2989  0
2990  1
2991  0
2992  0
2993  0
2994  2
2995  1
2996  0
2997  0
2998  1
2999  1
3000  0
3001  0
3002  0
3003  0
3004  1
3005  1
3006  1
3007  0
3008  1
3009  0
3010  1
3011  0
3012  2
3013  0
3014  0
3015  0
3016  1
3017  0
3018  1
3019  0
3020  0
3021  1
3022  1
3023  0
3024  0
3025  0
3026  0
3027  1
3028  0
3029  0
3030  0
3031  0
3032  1
3033  2
3034  0
3035  0
3036  0
3037  1
3038  0
3039  0
3040  1
3041  1
3042  0
3043  0
3044  0
3045  0
3046  0
3047  0
3048  1
3049  0
3050  1
3051  1
3052  0
3053  0
3054  0
3055  1
3056  0
3057  0
3058  0
3059  0
3060  0
3061  1
3062  0
3063  0
3064  1
3065  1
3066  0
3067  0
3068  1
3069  2
3070  1
3071  0
3072  0
3073  0
3074  1
3075  0
3076  2
3077  0
3078  0
3079  0
3080  0
3081  0
3082  1
3083  0
3084  0
3085  2
3086  0
3087  0
3088  1
3089  0
3090  0
3091  2
3092  0
3093  0
3094  1
3095  0
3096  0
3097  0
3098  1
3099  0
3100  0
3101  0
3102  0
3103  0
3104  0
3105  0
3106  1
3107  0
3108  0
3109  0
3110  0
3111  0
3112  1
3113  0
3114  0
3115  0
3116  0
3117  0
3118  0
3119  0
3120  1
3121  0
3122  0
3123  0
3124  0
3125  0
3126  0
3127  0
3128  1
3129  0
3130  0
3131  1
3132  0
3133  1
3134  0
3135  0
3136  0
3137  0
3138  0
3139  0
3140  0
3141  0
3142  1
3143  0
3144  2
3145  1
3146  0
3147  0
3148  0
3149  0
3150  2
3151  0
3152  1
3153  0
3154  0
3155  0
3156  0
3157  1
3158  2
3159  1
3160  0
3161  1
3162  1
3163  1
3164  0
3165  1
3166  0
3167  0
3168  0
3169  0
3170  0
3171  0
3172  0
3173  1
3174  0
3175  1
3176  1
3177  0
3178  0
3179  0
3180  0
3181  1
3182  1
3183  2
3184  0
3185  1
3186  1
3187  0
3188  0
3189  0
3190  1
3191  0
3192  0
3193  1
3194  0
3195  0
3196  0
3197  2
3198  0
3199  1
3200  1
3201  1
3202  0
3203  1
3204  0
3205  0
3206  0
3207  0
3208  0
3209  0
3210  0
3211  0
3212  0
3213  0
3214  2
3215  0
3216  0
3217  0
3218  1
3219  0
3220  0
3221  0
3222  0
3223  0
3224  0
3225  1
3226  0
3227  0
3228  0
3229  0
3230  0
3231  0
3232  0
3233  1
3234  0
3235  0
3236  1
3237  0
3238  0
3239  0
3240  0
3241  2
3242  1
3243  0
3244  1
3245  0
3246  1
3247  1
3248  1
3249  0
3250  0
3251  1
3252  0
3253  1
3254  0
3255  0
3256  1
3257  0
3258  0
3259  1
3260  0
3261  0
3262  0
3263  0
3264  0
3265  0
3266  1
3267  1
3268  1
3269  0
3270  3
3271  0
3272  0
3273  1
3274  0
3275  0
3276  0
3277  0
3278  0
3279  2
3280  0
3281  1
3282  0
3283  0
3284  1
3285  1
3286  0
3287  0
3288  0
3289  0
3290  0
3291  0
3292  0
3293  0
3294  0
3295  0
3296  1
3297  0
3298  1
3299  0
3300  0
3301  0
3302  0
3303  2
3304  0
3305  1
3306  1
3307  0
3308  0
3309  0
3310  0
3311  1
3312  0
3313  0
3314  0
3315  0
3316  2
3317  0
3318  1
3319  0
3320  0
3321  0
3322  0
3323  0
3324  0
3325  0
3326  0
3327  0
3328  2
3329  0
3330  0
3331  0
3332  0
3333  0
3334  1
3335  2
3336  1
3337  0
3338  0
3339  1
3340  1
3341  0
3342  0
3343  0
3344  2
3345  0
3346  0
3347  0
3348  1
3349  0
3350  0
3351  1
3352  0
3353  0
3354  0
3355  1
3356  2
3357  0
3358  0
3359  0
3360  0
3361  0
3362  0
3363  0
3364  1
3365  2
3366  1
3367  0
3368  0
3369  1
3370  0
3371  0
3372  0
3373  1
3374  1
3375  0
3376  3
3377  0
3378  0
3379  0
3380  0
3381  2
3382  0
3383  1
3384  0
3385  1
3386  1
3387  0
3388  0
3389  0
3390  0
3391  0
3392  0
3393  0
3394  1
3395  0
3396  0
3397  0
3398  0
3399  1
3400  0
3401  0
3402  1
3403  0
3404  0
3405  1
3406  1
3407  1
3408  0
3409  0
3410  0
3411  0
3412  0
3413  0
3414  1
3415  0
3416  0
3417  0
3418  0
3419  0
3420  0
3421  1
3422  0
3423  0
3424  1
3425  0
3426  1
3427  0
3428  2
3429  0
3430  0
3431  1
3432  0
3433  0
3434  0
3435  1
3436  0
3437  0
3438  0
3439  0
3440  0
3441  0
3442  0
3443  0
3444  0
3445  0
3446  1
3447  0
3448  1
3449  0
3450  0
3451  1
3452  0
3453  0
3454  2
3455  2
3456  0
3457  1
3458  0
3459  1
3460  2
3461  0
3462  0
3463  0
3464  1
3465  1
3466  1
3467  0
3468  0
3469  0
3470  1
3471  0
3472  0
3473  1
3474  1
3475  0
3476  0
3477  1
3478  0
3479  1
3480  0
3481  0
3482  1
3483  1
3484  0
3485  0
3486  0
3487  0
3488  0
3489  0
3490  1
3491  1
3492  0
3493  0
3494  0
3495  2
3496  0
3497  0
3498  0
3499  0
3500  0
3501  0
3502  0
3503  1
3504  1
3505  0
3506  0
3507  0
3508  0
3509  1
3510  0
3511  0
3512  0
3513  0
3514  1
3515  0
3516  0
3517  0
3518  0
3519  0
3520  1
3521  0
3522  0
3523  1
3524  0
3525  0
3526  0
3527  1
3528  1
3529  0
3530  0
3531  0
3532  0
3533  0
3534  0
3535  1
3536  0
3537  0
3538  0
3539  0
3540  1
3541  1
3542  0
3543  0
3544  0
3545  0
3546  0
3547  0
3548  0
3549  0
3550  0
3551  0
3552  0
3553  0
3554  0
3555  0
3556  0
3557  0
3558  0
3559  0
3560  1
3561  0
3562  0
3563  0
3564  1
3565  0
3566  0
3567  0
3568  0
3569  0
3570  0
3571  0
3572  0
3573  1
3574  0
3575  0
3576  0
3577  0
3578  0
3579  0
3580  0
3581  0
3582  0
3583  0
3584  0
3585  0
3586  0
3587  0
3588  0
3589  0
3590  1
3591  2
3592  0
3593  0
3594  0
3595  1
3596  0
3597  0
3598  0
3599  1
3600  0
3601  0
3602  0
3603  0
3604  0
3605  0
3606  0
3607  0
3608  0
3609  0
3610  0
3611  1
3612  0
3613  0
3614  0
3615  0
3616  1
3617  1
3618  1
3619  0
3620  0
3621  0
3622  0
3623  0
3624  0
3625  1
3626  2
3627  0
3628  0
3629  0
3630  1
3631  0
3632  0
3633  1
3634  0
3635  0
3636  0
3637  1
3638  0
3639  0
3640  1
3641  1
3642  0
3643  0
3644  0
3645  0
3646  0
3647  0
3648  0
3649  0
3650  0
3651  0
3652  0
3653  0
3654  0
3655  0
3656  0
3657  0
3658  0
3659  1
3660  0
3661  0
3662  0
3663  1
3664  0
3665  0
3666  0
3667  2
3668  0
3669  1
3670  2
3671  0
3672  0
3673  0
3674  1
3675  0
3676  0
3677  0
3678  0
3679  0
3680  0
3681  0
3682  0
3683  0
3684  0
3685  0
3686  0
3687  0
3688  0
3689  0
3690  0
3691  1
3692  0
3693  0
3694  1
3695  1
3696  0
3697  0
3698  0
3699  1
3700  0
3701  0
3702  0
3703  0
3704  0
3705  0
3706  1
3707  0
3708  0
3709  0
3710  0
3711  0
3712  0
3713  0
3714  1
3715  1
3716  1
3717  0
3718  1
3719  1
3720  0
3721  0
3722  0
3723  0
3724  0
3725  0
3726  2
3727  1
3728  2
3729  0
3730  0
3731  1
3732  0
3733  1
3734  0
3735  0
3736  0
3737  0
3738  0
3739  0
3740  0
3741  0
3742  0
3743  0
3744  0
3745  0
3746  1
3747  0
3748  0
3749  0
3750  1
3751  0
3752  0
3753  0
3754  1
3755  0
3756  0
3757  0
3758  0
3759  0
3760  0
3761  1
3762  0
3763  1
3764  1
3765  0
3766  1
3767  0
3768  0
3769  0
3770  0
3771  0
3772  0
3773  0
3774  0
3775  0
3776  1
3777  1
3778  0
3779  0
3780  1
3781  1
3782  0
3783  1
3784  0
3785  0
3786  0
3787  0
3788  0
3789  1
3790  0
3791  0
3792  1
3793  0
3794  0
3795  0
3796  2
3797  1
3798  0
3799  4
3800  2
3801  4
3802  8
3803  5
3804  4
3805  13
3806  11
3807  11
3808  10
3809  5
3810  6
3811  12
3812  3
3813  6
3814  7
3815  0
3816  8
3817  1
3818  0
3819  2
3820  2
3821  0
3822  1
3823  2
3824  1
3825  2
3826  1
3827  0
3828  1
3829  0
3830  1
3831  2
3832  0
3833  0
3834  0
3835  0
3836  0
3837  0
3838  0
3839  0
3840  0
3841  0
3842  0
3843  0
3844  0
3845  0
3846  0
3847  0
3848  0
3849  0
3850  0
3851  0
3852  0
3853  0
3854  0
3855  0
3856  0
3857  0
3858  0
3859  0
3860  0
3861  0
3862  0
3863  0
3864  0
3865  0
3866  0
3867  0
3868  0
3869  0
3870  0
3871  0
3872  0
3873  0
3874  0
3875  0
3876  0
3877  0
3878  0
3879  0
3880  0
3881  0
3882  0
3883  0
3884  0
3885  0
3886  0
3887  0
3888  0
3889  0
3890  0
3891  0
3892  0
3893  0
3894  0
3895  0
3896  0
3897  0
3898  0
3899  0
3900  0
3901  0
3902  0
3903  0
3904  0
3905  0
3906  0
3907  0
3908  0
3909  0
3910  0
3911  0
3912  0
3913  0
3914  0
3915  0
3916  0
3917  0
3918  0
3919  0
3920  0
3921  0
3922  0
3923  0
3924  0
3925  0
3926  0
3927  0
3928  0
3929  0
3930  0
3931  0
3932  0
3933  0
3934  0
3935  0
3936  0
3937  0
3938  0
3939  0
3940  0
3941  0
3942  0
3943  0
3944  0
3945  0
3946  0
3947  0
3948  0
3949  0
3950  0
3951  0
3952  0
3953  0
3954  0
3955  0
3956  0
3957  0
3958  0
3959  0
3960  0
3961  0
3962  0
3963  0
3964  0
3965  0
3966  0
3967  0
3968  0
3969  0
3970  0
3971  0
3972  0
3973  0
3974  0
3975  0
3976  0
3977  0
3978  0
3979  0
3980  0
3981  0
3982  0
3983  0
3984  0
3985  0
3986  0
3987  0
3988  0
3989  0
3990  0
3991  0
3992  0
3993  0
3994  0
3995  0
3996  0
3997  0
3998  0
3999  0
4000  0
4001  0
4002  0
4003  0
4004  0
4005  0
4006  0
4007  0
4008  0
4009  0
4010  0
4011  0
4012  0
4013  0
4014  0
4015  0
4016  0
4017  0
4018  0
4019  0
4020  0
4021  0
4022  0
4023  0
4024  0
4025  0
4026  0
4027  0
4028  0
4029  0
4030  0
4031  0
4032  0
4033  0
4034  0
4035  0
4036  0
4037  0
4038  0
4039  0
4040  0
4041  0
4042  0
4043  0
4044  0
4045  0
4046  0
4047  0
4048  0
4049  0
4050  0
4051  0
4052  0
4053  0
4054  0
4055  0
4056  0
4057  0
4058  0
4059  0
4060  0
4061  0
4062  0
4063  0
4064  0
4065  0
4066  0
4067  0
4068  0
4069  0
4070  0
4071  0
4072  0
4073  0
4074  0
4075  0
4076  0
4077  0
4078  0
4079  0
4080  0
4081  0
4082  0
4083  0
4084  0
4085  0
4086  0
4087  0
4088  0
4089  0
4090  0
4091  0
4092  0
4093  0
4094  0
4095  0
