0  0
1  0
2  0
3  0
4  0
5  0
6  0
7  0
8  0
9  0
10  0
11  0
12  0
13  0
14  3
15  121
16  440
17  516
18  163
19  26
20  20
21  6
22  5
23  4
24  3
25  4
26  3
27  3
28  3
29  3
30  3
31  4
32  4
33  3
34  1
35  2
36  3
37  1
38  1
39  3
40  1
41  7
42  3
43  2
44  3
45  2
46  1
47  0
48  0
49  0
50  0
51  0
52  0
53  0
54  0
55  0
56  0
57  0
58  0
59  0
60  0
61  0
62  0
63  0
64  0
65  0
66  0
67  0
68  0
69  0
70  0
71  0
72  0
73  0
74  0
75  0
76  0
77  0
78  0
79  0
80  0
81  0
82  0
83  0
84  0
85  0
86  0
87  0
88  0
89  0
90  0
91  0
92  0
93  0
94  0
95  0
96  0
97  0
98  0
99  0
100  0
101  0
102  0
103  0
104  0
105  0
106  0
107  0
108  0
109  0
110  0
111  0
112  0
113  0
114  0
115  0
116  0
117  0
118  0
119  0
120  0
121  0
122  0
123  0
124  0
125  0
126  0
127  0
128  0
129  0
130  0
131  0
132  0
133  0
134  0
135  0
136  0
137  0
138  0
139  0
140  0
141  0
142  0
143  0
144  0
145  0
146  0
147  0
148  0
149  0
150  0
151  0
152  0
153  0
154  0
155  0
156  0
157  0
158  0
159  0
160  0
161  0
162  0
163  0
164  0
165  0
166  0
167  0
168  0
169  0
170  0
171  0
172  0
173  0
174  0
175  0
176  0
177  0
178  0
179  0
180  0
181  6
182  74
183  248
184  434
185  521
186  467
187  389
188  196
189  85
190  77
191  46
192  59
193  44
194  37
195  38
196  38
197  28
198  25
199  24
200  20
201  22
202  27
203  24
204  25
205  15
206  27
207  26
208  32
209  25
210  22
211  12
212  14
213  30
214  20
215  20
216  23
217  23
218  23
219  22
220  30
221  17
222  19
223  24
224  20
225  31
226  21
227  19
228  18
229  19
230  26
231  21
232  21
233  23
234  21
235  19
236  26
237  28
238  32
239  27
240  22
241  31
242  22
243  17
244  22
245  23
246  18
247  25
248  33
249  24
250  24
251  22
252  23
253  15
254  18
255  23
256  29
257  20
258  30
259  19
260  19
261  26
262  16
263  12
264  18
265  22
266  12
267  29
268  19
269  17
270  23
271  17
272  30
273  27
274  21
275  25
276  13
277  30
278  29
279  26
280  23
281  15
282  23
283  23
284  18
285  26
286  16
287  14
288  17
289  19
290  16
291  32
292  21
293  17
294  17
295  23
296  24
297  23
298  16
299  29
300  22
301  25
302  32
303  27
304  23
305  20
306  20
307  22
308  17
309  20
310  15
311  25
312  27
313  26
314  27
315  26
316  20
317  22
318  17
319  21
320  19
321  22
322  17
323  21
324  28
325  25
326  20
327  27
328  16
329  22
330  24
331  19
332  22
333  16
334  17
335  33
336  30
337  21
338  31
339  27
340  21
341  23
342  17
343  23
344  19
345  19
346  21
347  22
348  24
349  20
350  29
351  22
352  28
353  20
354  19
355  35
356  17
357  22
358  10
359  21
360  29
361  22
362  19
363  19
364  14
365  18
366  29
367  17
368  19
369  21
370  25
371  30
372  38
373  22
374  25
375  21
376  22
377  15
378  26
379  26
380  15
381  21
382  16
383  21
384  19
385  21
386  22
387  18
388  25
389  22
390  26
391  21
392  25
393  24
394  22
395  22
396  27
397  20
398  22
399  22
400  26
401  28
402  24
403  23
404  19
405  28
406  14
407  17
408  25
409  32
410  24
411  27
412  16
413  15
414  37
415  22
416  27
417  20
418  22
419  22
420  17
421  24
422  22
423  15
424  22
425  26
426  19
427  20
428  21
429  19
430  25
431  23
432  22
433  24
434  20
435  17
436  23
437  21
438  23
439  29
440  15
441  23
442  22
443  24
444  35
445  22
446  20
447  14
448  26
449  32
450  22
451  22
452  20
453  21
454  24
455  20
456  28
457  26
458  18
459  22
460  16
461  21
462  26
463  25
464  24
465  25
466  21
467  27
468  29
469  16
470  28
471  23
472  18
473  28
474  21
475  25
476  20
477  18
478  22
479  17
480  14
481  19
482  12
483  28
484  16
485  24
486  19
487  22
488  16
489  20
490  33
491  26
492  30
493  21
494  20
495  21
496  14
497  21
498  18
499  24
500  24
501  22
502  17
503  20
504  29
505  17
506  15
507  15
508  29
509  19
510  26
511  29
512  15
513  19
514  23
515  23
516  16
517  21
518  25
519  17
520  27
521  29
522  22
523  24
524  22
525  19
526  25
527  19
528  33
529  20
530  28
531  28
532  18
533  24
534  27
535  25
536  17
537  22
538  26
539  25
540  31
541  21
542  28
543  26
544  18
545  24
546  31
547  16
548  26
549  16
550  27
551  28
552  20
553  22
554  26
555  26
556  19
557  22
558  17
559  17
560  24
561  20
562  18
563  18
564  25
565  27
566  21
567  19
568  27
569  26
570  15
571  22
572  20
573  21
574  26
575  24
576  18
577  12
578  21
579  21
580  18
581  24
582  21
583  17
584  25
585  25
586  23
587  24
588  17
589  20
590  25
591  19
592  13
593  21
594  13
595  11
596  25
597  18
598  18
599  29
600  20
601  21
602  28
603  26
604  19
605  16
606  21
607  20
608  19
609  24
610  18
611  24
612  24
613  26
614  15
615  21
616  27
617  19
618  18
619  21
620  30
621  16
622  28
623  17
624  30
625  17
626  23
627  23
628  24
629  16
630  22
631  25
632  27
633  15
634  15
635  17
636  26
637  22
638  21
639  31
640  20
641  27
642  26
643  25
644  16
645  19
646  26
647  22
648  31
649  24
650  30
651  23
652  24
653  22
654  18
655  16
656  23
657  23
658  19
659  34
660  17
661  24
662  24
663  30
664  18
665  24
666  27
667  26
668  17
669  28
670  16
671  18
672  24
673  24
674  27
675  27
676  19
677  28
678  23
679  23
680  21
681  13
682  19
683  21
684  22
685  14
686  21
687  20
688  23
689  21
690  17
691  20
692  30
693  17
694  25
695  29
696  20
697  24
698  16
699  24
700  12
701  25
702  18
703  20
704  19
705  31
706  30
707  20
708  21
709  12
710  23
711  17
712  19
713  21
714  23
715  23
716  22
717  17
718  31
719  20
720  29
721  22
722  22
723  24
724  24
725  14
726  20
727  18
728  19
729  21
730  21
731  20
732  23
733  21
734  22
735  24
736  27
737  19
738  27
739  20
740  20
741  29
742  22
743  25
744  20
745  15
746  26
747  25
748  24
749  25
750  19
751  23
752  18
753  22
754  22
755  24
756  15
757  34
758  26
759  27
760  28
761  18
762  32
763  34
764  26
765  28
766  29
767  18
768  21
769  20
770  19
771  18
772  15
773  19
774  18
775  23
776  21
777  19
778  19
779  26
780  17
781  18
782  22
783  26
784  15
785  21
786  23
787  28
788  25
789  21
790  24
791  24
792  27
793  27
794  27
795  26
796  26
797  24
798  18
799  27
800  29
801  22
802  23
803  17
804  32
805  26
806  17
807  32
808  24
809  26
810  26
811  24
812  24
813  25
814  16
815  25
816  28
817  21
818  22
819  15
820  23
821  29
822  22
823  20
824  20
825  20
826  12
827  25
828  23
829  28
830  26
831  23
832  21
833  20
834  23
835  22
836  13
837  10
838  22
839  27
840  22
841  21
842  27
843  20
844  22
845  28
846  19
847  18
848  23
849  26
850  23
851  23
852  23
853  25
854  24
855  14
856  20
857  21
858  25
859  24
860  20
861  28
862  20
863  19
864  21
865  18
866  17
867  23
868  18
869  21
870  18
871  18
872  17
873  21
874  24
875  24
876  22
877  22
878  27
879  9
880  31
881  17
882  28
883  19
884  14
885  18
886  18
887  24
888  22
889  22
890  21
891  29
892  18
893  27
894  17
895  30
896  29
897  24
898  25
899  23
900  20
901  22
902  20
903  22
904  18
905  25
906  21
907  17
908  21
909  23
910  25
911  17
912  26
913  29
914  27
915  19
916  21
917  28
918  30
919  25
920  19
921  21
922  16
923  27
924  26
925  22
926  17
927  21
928  21
929  20
930  18
931  24
932  32
933  26
934  29
935  30
936  32
937  23
938  23
939  24
940  22
941  25
942  13
943  15
944  24
945  21
946  27
947  24
948  26
949  16
950  21
951  27
952  20
953  27
954  23
955  25
956  19
957  20
958  15
959  20
960  24
961  21
962  20
963  18
964  24
965  21
966  18
967  17
968  32
969  22
970  31
971  17
972  18
973  27
974  26
975  24
976  32
977  17
978  18
979  19
980  17
981  19
982  21
983  19
984  21
985  30
986  19
987  27
988  20
989  22
990  22
991  28
992  23
993  20
994  22
995  26
996  27
997  24
998  23
999  16
1000  28
1001  34
1002  17
1003  29
1004  23
1005  28
1006  31
1007  25
1008  26
1009  22
1010  21
1011  22
1012  25
1013  17
1014  24
1015  19
1016  19
1017  24
1018  35
1019  19
1020  22
1021  19
1022  25
1023  26
1024  24
1025  17
1026  21
1027  25
1028  21
1029  26
1030  26
1031  16
1032  25
1033  20
1034  21
1035  26
1036  25
1037  21
1038  27
1039  31
1040  19
1041  21
1042  19
1043  31
1044  20
1045  22
1046  24
1047  28
1048  21
1049  35
1050  26
1051  23
1052  28
1053  21
1054  19
1055  20
1056  25
1057  27
1058  29
1059  23
1060  21
1061  34
1062  27
1063  22
1064  33
1065  29
1066  25
1067  27
1068  33
1069  28
1070  24
1071  27
1072  32
1073  23
1074  37
1075  22
1076  23
1077  26
1078  26
1079  21
1080  23
1081  28
1082  19
1083  20
1084  30
1085  19
1086  27
1087  28
1088  19
1089  29
1090  39
1091  23
1092  18
1093  25
1094  31
1095  21
1096  26
1097  22
1098  28
1099  26
1100  25
1101  18
1102  25
1103  31
1104  38
1105  30
1106  27
1107  15
1108  22
1109  24
1110  18
1111  21
1112  33
1113  25
1114  18
1115  20
1116  28
1117  24
1118  32
1119  21
1120  19
1121  27
1122  30
1123  25
1124  26
1125  21
1126  23
1127  31
1128  26
1129  28
1130  29
1131  21
1132  36
1133  26
1134  15
1135  27
1136  29
1137  28
1138  27
1139  27
1140  28
1141  21
1142  25
1143  27
1144  18
1145  25
1146  26
1147  29
1148  35
1149  25
1150  39
1151  24
1152  22
1153  29
1154  30
1155  32
1156  20
1157  29
1158  32
1159  39
1160  24
1161  37
1162  35
1163  25
1164  28
1165  28
1166  22
1167  22
1168  31
1169  30
1170  22
1171  24
1172  37
1173  37
1174  22
1175  29
1176  30
1177  25
1178  30
1179  25
1180  26
1181  28
1182  37
1183  21
1184  40
1185  19
1186  35
1187  27
1188  31
1189  35
1190  25
1191  30
1192  24
1193  34
1194  39
1195  33
1196  35
1197  41
1198  48
1199  35
1200  46
1201  41
1202  36
1203  42
1204  44
1205  49
1206  57
1207  52
1208  42
1209  51
1210  45
1211  54
1212  43
1213  44
1214  51
1215  51
1216  47
1217  59
1218  51
1219  40
1220  46
1221  47
1222  41
1223  38
1224  38
1225  30
1226  51
1227  39
1228  41
1229  33
1230  33
1231  42
1232  36
1233  35
1234  30
1235  35
1236  33
1237  29
1238  29
1239  18
1240  31
1241  28
1242  38
1243  21
1244  35
1245  28
1246  25
1247  20
1248  34
1249  36
1250  37
1251  22
1252  26
1253  25
1254  29
1255  23
1256  21
1257  27
1258  29
1259  33
1260  24
1261  27
1262  23
1263  18
1264  32
1265  31
1266  28
1267  30
1268  29
1269  24
1270  32
1271  36
1272  23
1273  29
1274  22
1275  27
1276  32
1277  30
1278  30
1279  21
1280  29
1281  36
1282  28
1283  29
1284  33
1285  28
1286  31
1287  18
1288  35
1289  25
1290  27
1291  26
1292  32
1293  25
1294  22
1295  20
1296  21
1297  28
1298  38
1299  25
1300  27
1301  29
1302  33
1303  19
1304  19
1305  38
1306  30
1307  26
1308  25
1309  34
1310  23
1311  24
1312  30
1313  23
1314  33
1315  31
1316  24
1317  28
1318  33
1319  28
1320  35
1321  32
1322  20
1323  25
1324  34
1325  23
1326  20
1327  22
1328  23
1329  14
1330  30
1331  21
1332  30
1333  33
1334  23
1335  19
1336  35
1337  25
1338  29
1339  31
1340  26
1341  39
1342  27
1343  24
1344  27
1345  25
1346  21
1347  19
1348  23
1349  32
1350  24
1351  18
1352  17
1353  26
1354  22
1355  34
1356  24
1357  23
1358  22
1359  21
1360  38
1361  25
1362  32
1363  32
1364  31
1365  26
1366  22
1367  32
1368  27
1369  23
1370  23
1371  23
1372  31
1373  27
1374  26
1375  25
1376  24
1377  30
1378  22
1379  26
1380  26
1381  19
1382  30
1383  31
1384  14
1385  22
1386  30
1387  31
1388  21
1389  18
1390  30
1391  24
1392  25
1393  18
1394  26
1395  24
1396  26
1397  26
1398  28
1399  22
1400  27
1401  20
1402  30
1403  16
1404  22
1405  25
1406  29
1407  18
1408  22
1409  27
1410  17
1411  31
1412  19
1413  29
1414  21
1415  20
1416  27
1417  12
1418  26
1419  26
1420  30
1421  24
1422  27
1423  14
1424  38
1425  20
1426  23
1427  22
1428  24
1429  28
1430  29
1431  17
1432  19
1433  25
1434  34
1435  24
1436  33
1437  23
1438  30
1439  19
1440  29
1441  25
1442  27
1443  23
1444  23
1445  22
1446  26
1447  33
1448  25
1449  24
1450  30
1451  26
1452  23
1453  21
1454  21
1455  19
1456  22
1457  21
1458  15
1459  14
1460  28
1461  22
1462  18
1463  30
1464  32
1465  19
1466  27
1467  26
1468  28
1469  23
1470  27
1471  20
1472  25
1473  18
1474  37
1475  31
1476  33
1477  26
1478  26
1479  22
1480  23
1481  32
1482  9
1483  31
1484  20
1485  21
1486  19
1487  20
1488  37
1489  27
1490  26
1491  29
1492  24
1493  27
1494  19
1495  29
1496  26
1497  27
1498  25
1499  30
1500  27
1501  29
1502  22
1503  17
1504  21
1505  27
1506  21
1507  30
1508  18
1509  20
1510  25
1511  23
1512  19
1513  32
1514  25
1515  20
1516  35
1517  25
1518  35
1519  18
1520  24
1521  24
1522  24
1523  21
1524  19
1525  25
1526  30
1527  21
1528  20
1529  19
1530  24
1531  24
1532  29
1533  21
1534  27
1535  20
1536  19
1537  21
1538  16
1539  26
1540  26
1541  24
1542  20
1543  20
1544  22
1545  24
1546  22
1547  26
1548  23
1549  25
1550  20
1551  15
1552  22
1553  28
1554  17
1555  28
1556  19
1557  30
1558  27
1559  32
1560  32
1561  29
1562  19
1563  20
1564  25
1565  23
1566  25
1567  21
1568  24
1569  26
1570  25
1571  24
1572  21
1573  29
1574  17
1575  21
1576  17
1577  21
1578  22
1579  18
1580  21
1581  17
1582  20
1583  30
1584  19
1585  18
1586  20
1587  22
1588  24
1589  25
1590  42
1591  24
1592  20
1593  25
1594  22
1595  20
1596  22
1597  18
1598  19
1599  19
1600  15
1601  36
1602  21
1603  17
1604  40
1605  31
1606  25
1607  17
1608  19
1609  26
1610  32
1611  24
1612  23
1613  24
1614  15
1615  23
1616  28
1617  25
1618  27
1619  23
1620  24
1621  20
1622  25
1623  15
1624  30
1625  29
1626  32
1627  23
1628  20
1629  18
1630  27
1631  37
1632  23
1633  26
1634  22
1635  30
1636  25
1637  27
1638  23
1639  32
1640  19
1641  23
1642  16
1643  40
1644  18
1645  22
1646  26
1647  22
1648  29
1649  14
1650  21
1651  18
1652  20
1653  38
1654  24
1655  19
1656  25
1657  20
1658  16
1659  22
1660  28
1661  22
1662  29
1663  22
1664  20
1665  24
1666  23
1667  23
1668  25
1669  30
1670  28
1671  30
1672  29
1673  30
1674  19
1675  28
1676  29
1677  14
1678  26
1679  20
1680  19
1681  24
1682  23
1683  18
1684  36
1685  24
1686  28
1687  23
1688  19
1689  26
1690  24
1691  20
1692  25
1693  31
1694  25
1695  23
1696  19
1697  21
1698  21
1699  26
1700  22
1701  29
1702  22
1703  28
1704  29
1705  25
1706  32
1707  16
1708  24
1709  29
1710  22
1711  32
1712  22
1713  28
1714  26
1715  20
1716  29
1717  25
1718  29
1719  23
1720  22
1721  21
1722  26
1723  33
1724  27
1725  24
1726  37
1727  24
1728  23
1729  30
1730  27
1731  20
1732  36
1733  30
1734  20
1735  31
1736  23
1737  23
1738  27
1739  19
1740  20
1741  21
1742  32
1743  26
1744  34
1745  28
1746  28
1747  22
1748  18
1749  34
1750  21
1751  26
1752  23
1753  27
1754  20
1755  29
1756  28
1757  32
1758  26
1759  29
1760  30
1761  33
1762  27
1763  29
1764  18
1765  35
1766  25
1767  25
1768  34
1769  24
1770  26
1771  16
1772  30
1773  35
1774  21
1775  25
1776  22
1777  36
1778  33
1779  24
1780  27
1781  22
1782  24
1783  32
1784  31
1785  32
1786  31
1787  23
1788  29
1789  25
1790  30
1791  27
1792  30
1793  37
1794  36
1795  33
1796  33
1797  29
1798  31
1799  37
1800  49
1801  31
1802  41
1803  33
1804  45
1805  37
1806  41
1807  40
1808  42
1809  57
1810  52
1811  50
1812  45
1813  57
1814  50
1815  39
1816  52
1817  58
1818  71
1819  60
1820  71
1821  62
1822  60
1823  67
1824  93
1825  91
1826  94
1827  105
1828  109
1829  111
1830  109
1831  124
1832  134
1833  125
1834  128
1835  178
1836  184
1837  185
1838  221
1839  208
1840  276
1841  275
1842  277
1843  326
1844  339
1845  360
1846  363
1847  399
1848  493
1849  461
1850  514
1851  596
1852  552
1853  598
1854  622
1855  623
1856  677
1857  712
1858  711
1859  801
1860  837
1861  871
1862  869
1863  945
1864  929
1865  1020
1866  990
1867  993
1868  1108
1869  1097
1870  1153
1871  1177
1872  1303
1873  1209
1874  1306
1875  1298
1876  1250
1877  1321
1878  1366
1879  1406
1880  1477
1881  1356
1882  1469
1883  1407
1884  1424
1885  1380
1886  1322
1887  1424
1888  1386
1889  1353
1890  1435
1891  1313
1892  1371
1893  1329
1894  1260
1895  1256
1896  1112
1897  1162
1898  1064
1899  999
1900  932
1901  841
1902  781
1903  727
1904  694
1905  577
1906  547
1907  498
1908  451
1909  401
1910  374
1911  315
1912  314
1913  249
1914  263
1915  251
1916  213
1917  174
1918  178
1919  161
1920  159
1921  136
1922  136
1923  140
1924  125
1925  139
1926  132
1927  106
1928  95
1929  108
1930  121
1931  107
1932  105
1933  122
1934  106
1935  93
1936  98
1937  101
1938  94
1939  99
1940  95
1941  102
1942  75
1943  85
1944  87
1945  98
1946  83
1947  85
1948  58
1949  73
1950  85
1951  83
1952  89
1953  76
1954  75
1955  82
1956  60
1957  111
1958  82
1959  79
1960  81
1961  93
1962  73
1963  74
1964  74
1965  66
1966  79
1967  72
1968  69
1969  65
1970  81
1971  73
1972  65
1973  68
1974  79
1975  71
1976  77
1977  68
1978  74
1979  73
1980  58
1981  78
1982  74
1983  57
1984  67
1985  76
1986  73
1987  64
1988  53
1989  66
1990  60
1991  76
1992  60
1993  51
1994  57
1995  60
1996  59
1997  65
1998  57
1999  59
2000  55
2001  54
2002  57
2003  64
2004  64
2005  58
2006  50
2007  57
2008  50
2009  37
2010  50
2011  46
2012  54
2013  47
2014  47
2015  45
2016  32
2017  43
2018  39
2019  40
2020  48
2021  46
2022  39
2023  41
2024  37
2025  38
2026  43
2027  35
2028  32
2029  32
2030  41
2031  32
2032  35
2033  29
2034  35
2035  29
2036  31
2037  42
2038  27
2039  40
2040  42
2041  36
2042  29
2043  29
2044  36
2045  22
2046  29
2047  30
2048  27
2049  30
2050  21
2051  31
2052  31
2053  24
2054  28
2055  44
2056  30
2057  26
2058  40
2059  33
2060  35
2061  24
2062  28
2063  34
2064  24
2065  28
2066  30
2067  25
2068  27
2069  28
2070  23
2071  27
2072  23
2073  18
2074  29
2075  16
2076  22
2077  20
2078  35
2079  18
2080  25
2081  27
2082  18
2083  31
2084  16
2085  16
2086  21
2087  21
2088  21
2089  18
2090  29
2091  21
2092  30
2093  34
2094  18
2095  21
2096  25
2097  17
2098  20
2099  22
2100  20
2101  28
2102  25
2103  26
2104  18
2105  28
2106  21
2107  25
2108  29
2109  24
2110  16
2111  20
2112  28
2113  28
2114  21
2115  20
2116  21
2117  23
2118  19
2119  27
2120  19
2121  21
2122  16
2123  21
2124  24
2125  25
2126  16
2127  29
2128  21
2129  28
2130  20
2131  26
2132  23
2133  24
2134  25
2135  23
2136  14
2137  19
2138  24
2139  13
2140  22
2141  24
2142  30
2143  17
2144  25
2145  24
2146  14
2147  18
2148  18
2149  25
2150  14
2151  27
2152  16
2153  27
2154  22
2155  17
2156  22
2157  31
2158  26
2159  27
2160  22
2161  22
2162  19
2163  27
2164  25
2165  20
2166  24
2167  20
2168  23
2169  32
2170  19
2171  21
2172  19
2173  24
2174  23
2175  17
2176  18
2177  22
2178  23
2179  15
2180  22
2181  22
2182  20
2183  16
2184  18
2185  23
2186  16
2187  22
2188  24
2189  26
2190  20
2191  20
2192  21
2193  30
2194  15
2195  15
2196  20
2197  28
2198  20
2199  14
2200  24
2201  21
2202  17
2203  18
2204  15
2205  20
2206  24
2207  18
2208  23
2209  21
2210  15
2211  29
2212  20
2213  28
2214  24
2215  22
2216  20
2217  22
2218  28
2219  27
2220  22
2221  24
2222  27
2223  30
2224  30
2225  24
2226  26
2227  22
2228  24
2229  19
2230  28
2231  14
2232  27
2233  25
2234  21
2235  22
2236  24
2237  25
2238  22
2239  31
2240  29
2241  28
2242  17
2243  28
2244  22
2245  27
2246  21
2247  27
2248  22
2249  23
2250  23
2251  21
2252  17
2253  29
2254  19
2255  13
2256  17
2257  18
2258  16
2259  18
2260  25
2261  14
2262  28
2263  29
2264  25
2265  28
2266  24
2267  22
2268  18
2269  27
2270  17
2271  20
2272  28
2273  14
2274  32
2275  28
2276  13
2277  22
2278  24
2279  33
2280  23
2281  22
2282  22
2283  20
2284  23
2285  22
2286  27
2287  24
2288  16
2289  24
2290  33
2291  24
2292  26
2293  27
2294  25
2295  26
2296  33
2297  22
2298  24
2299  26
2300  18
2301  30
2302  33
2303  24
2304  21
2305  17
2306  34
2307  17
2308  21
2309  17
2310  19
2311  23
2312  24
2313  26
2314  28
2315  16
2316  24
2317  23
2318  21
2319  30
2320  28
2321  21
2322  26
2323  26
2324  17
2325  19
2326  16
2327  25
2328  17
2329  22
2330  24
2331  21
2332  15
2333  18
2334  30
2335  21
2336  28
2337  15
2338  27
2339  24
2340  22
2341  22
2342  27
2343  6
2344  35
2345  23
2346  25
2347  20
2348  23
2349  17
2350  19
2351  14
2352  17
2353  27
2354  15
2355  16
2356  29
2357  28
2358  24
2359  26
2360  21
2361  27
2362  14
2363  21
2364  31
2365  27
2366  18
2367  15
2368  21
2369  16
2370  17
2371  22
2372  26
2373  23
2374  27
2375  29
2376  22
2377  24
2378  18
2379  20
2380  22
2381  24
2382  29
2383  11
2384  25
2385  27
2386  26
2387  22
2388  25
2389  18
2390  14
2391  22
2392  16
2393  21
2394  22
2395  20
2396  19
2397  27
2398  13
2399  21
2400  33
2401  25
2402  31
2403  19
2404  23
2405  19
2406  15
2407  25
2408  29
2409  28
2410  21
2411  18
2412  29
2413  21
2414  24
2415  22
2416  21
2417  22
2418  24
2419  26
2420  27
2421  24
2422  23
2423  17
2424  26
2425  29
2426  19
2427  33
2428  21
2429  23
2430  20
2431  23
2432  30
2433  21
2434  19
2435  22
2436  22
2437  22
2438  19
2439  15
2440  30
2441  18
2442  15
2443  22
2444  32
2445  21
2446  22
2447  22
2448  27
2449  26
2450  37
2451  28
2452  26
2453  19
2454  33
2455  24
2456  25
2457  15
2458  27
2459  19
2460  25
2461  26
2462  20
2463  19
2464  14
2465  26
2466  20
2467  20
2468  33
2469  22
2470  21
2471  22
2472  19
2473  32
2474  24
2475  24
2476  28
2477  28
2478  26
2479  18
2480  19
2481  21
2482  10
2483  20
2484  18
2485  29
2486  27
2487  28
2488  20
2489  21
2490  26
2491  20
2492  24
2493  21
2494  21
2495  23
2496  27
2497  20
2498  23
2499  16
2500  15
2501  26
2502  17
2503  20
2504  23
2505  19
2506  17
2507  19
2508  24
2509  21
2510  23
2511  18
2512  18
2513  27
2514  18
2515  19
2516  13
2517  19
2518  21
2519  32
2520  26
2521  25
2522  16
2523  29
2524  27
2525  21
2526  21
2527  25
2528  21
2529  16
2530  20
2531  19
2532  21
2533  17
2534  26
2535  27
2536  27
2537  29
2538  20
2539  25
2540  23
2541  24
2542  15
2543  17
2544  23
2545  13
2546  24
2547  21
2548  17
2549  19
2550  24
2551  17
2552  25
2553  27
2554  20
2555  17
2556  20
2557  15
2558  16
2559  19
2560  21
2561  22
2562  30
2563  27
2564  22
2565  15
2566  21
2567  20
2568  21
2569  25
2570  21
2571  18
2572  29
2573  13
2574  16
2575  32
2576  26
2577  22
2578  24
2579  17
2580  20
2581  19
2582  16
2583  24
2584  17
2585  21
2586  21
2587  21
2588  26
2589  27
2590  22
2591  26
2592  25
2593  17
2594  19
2595  24
2596  21
2597  28
2598  16
2599  18
2600  19
2601  17
2602  23
2603  19
2604  19
2605  28
2606  17
2607  22
2608  25
2609  25
2610  14
2611  23
2612  21
2613  26
2614  20
2615  16
2616  19
2617  21
2618  24
2619  25
2620  26
2621  25
2622  14
2623  25
2624  20
2625  19
2626  19
2627  20
2628  19
2629  25
2630  22
2631  24
2632  26
2633  15
2634  21
2635  27
2636  26
2637  24
2638  16
2639  17
2640  22
2641  18
2642  16
2643  24
2644  31
2645  28
2646  23
2647  23
2648  18
2649  27
2650  22
2651  24
2652  16
2653  32
2654  19
2655  20
2656  29
2657  22
2658  19
2659  26
2660  17
2661  15
2662  29
2663  22
2664  16
2665  22
2666  14
2667  21
2668  23
2669  20
2670  21
2671  24
2672  26
2673  17
2674  15
2675  20
2676  24
2677  27
2678  22
2679  24
2680  17
2681  27
2682  18
2683  20
2684  22
2685  24
2686  11
2687  25
2688  27
2689  19
2690  20
2691  18
2692  29
2693  26
2694  15
2695  24
2696  18
2697  23
2698  19
2699  21
2700  30
2701  28
2702  19
2703  24
2704  32
2705  14
2706  19
2707  28
2708  30
2709  21
2710  10
2711  22
2712  20
2713  18
2714  24
2715  25
2716  21
2717  20
2718  20
2719  29
2720  19
2721  28
2722  20
2723  27
2724  21
2725  25
2726  26
2727  20
2728  31
2729  25
2730  30
2731  24
2732  29
2733  19
2734  18
2735  26
2736  17
2737  24
2738  23
2739  23
2740  22
2741  15
2742  31
2743  26
2744  25
2745  18
2746  18
2747  26
2748  24
2749  23
2750  21
2751  17
2752  23
2753  34
2754  20
2755  26
2756  17
2757  25
2758  24
2759  21
2760  19
2761  24
2762  26
2763  20
2764  18
2765  19
2766  34
2767  27
2768  23
2769  19
2770  12
2771  19
2772  25
2773  23
2774  22
2775  26
2776  17
2777  22
2778  21
2779  18
2780  28
2781  17
2782  24
2783  23
2784  18
2785  14
2786  28
2787  22
2788  22
2789  25
2790  25
2791  29
2792  18
2793  19
2794  21
2795  24
2796  21
2797  29
2798  19
2799  18
2800  17
2801  30
2802  22
2803  20
2804  16
2805  23
2806  19
2807  20
2808  23
2809  26
2810  32
2811  26
2812  27
2813  13
2814  22
2815  23
2816  31
2817  28
2818  27
2819  43
2820  35
2821  45
2822  50
2823  61
2824  53
2825  54
2826  57
2827  53
2828  67
2829  71
2830  72
2831  77
2832  73
2833  96
2834  87
2835  86
2836  93
2837  90
2838  104
2839  86
2840  87
2841  98
2842  77
2843  63
2844  83
2845  91
2846  64
2847  67
2848  56
2849  55
2850  60
2851  58
2852  61
2853  41
2854  62
2855  46
2856  38
2857  41
2858  38
2859  42
2860  26
2861  36
2862  23
2863  32
2864  35
2865  26
2866  29
2867  21
2868  32
2869  36
2870  36
2871  32
2872  43
2873  32
2874  23
2875  33
2876  33
2877  30
2878  29
2879  31
2880  32
2881  36
2882  28
2883  25
2884  34
2885  28
2886  24
2887  26
2888  33
2889  30
2890  24
2891  32
2892  37
2893  15
2894  28
2895  27
2896  32
2897  21
2898  22
2899  23
2900  20
2901  28
2902  21
2903  18
2904  30
2905  26
2906  29
2907  15
2908  27
2909  26
2910  24
2911  24
2912  25
2913  9
2914  32
2915  24
2916  22
2917  29
2918  21
2919  30
2920  27
2921  32
2922  22
2923  18
2924  24
2925  29
2926  24
2927  23
2928  24
2929  30
2930  32
2931  24
2932  20
2933  25
2934  24
2935  25
2936  35
2937  26
2938  26
2939  25
2940  22
2941  24
2942  24
2943  26
2944  27
2945  18
2946  19
2947  26
2948  20
2949  25
2950  27
2951  22
2952  17
2953  22
2954  29
2955  21
2956  21
2957  31
2958  27
2959  26
2960  22
2961  27
2962  28
2963  21
2964  25
2965  22
2966  26
2967  21
2968  27
2969  29
2970  23
2971  32
2972  20
2973  20
2974  21
2975  23
2976  22
2977  30
2978  21
2979  21
2980  33
2981  21
2982  19
2983  22
2984  22
2985  28
2986  21
2987  23
2988  28
2989  22
2990  21
2991  23
2992  27
2993  23
2994  22
2995  23
2996  29
2997  23
2998  25
2999  20
3000  28
3001  26
3002  22
3003  13
3004  23
3005  20
3006  27
3007  15
3008  26
3009  20
3010  18
3011  25
3012  20
3013  28
3014  23
3015  18
3016  25
3017  24
3018  18
3019  29
3020  26
3021  26
3022  20
3023  18
3024  18
3025  19
3026  21
3027  23
3028  23
3029  29
3030  24
3031  21
3032  24
3033  21
3034  30
3035  28
3036  20
3037  19
3038  15
3039  17
3040  25
3041  17
3042  21
3043  21
3044  20
3045  23
3046  30
3047  16
3048  21
3049  13
3050  22
3051  17
3052  29
3053  24
3054  15
3055  27
3056  18
3057  25
3058  13
3059  20
3060  14
3061  25
3062  25
3063  21
3064  27
3065  24
3066  19
3067  22
3068  16
3069  30
3070  23
3071  21
3072  22
3073  23
3074  30
3075  29
3076  28
3077  21
3078  27
3079  21
3080  15
3081  22
3082  20
3083  28
3084  30
3085  22
3086  19
3087  22
3088  11
3089  18
3090  21
3091  23
3092  28
3093  22
3094  32
3095  33
3096  27
3097  26
3098  22
3099  27
3100  23
3101  21
3102  27
3103  18
3104  25
3105  17
3106  22
3107  28
3108  19
3109  32
3110  20
3111  29
3112  20
3113  26
3114  23
3115  16
3116  26
3117  28
3118  27
3119  27
3120  23
3121  23
3122  14
3123  17
3124  22
3125  26
3126  19
3127  21
3128  14
3129  18
3130  27
3131  18
3132  32
3133  16
3134  18
3135  24
3136  25
3137  22
3138  19
3139  24
3140  20
3141  23
3142  19
3143  27
3144  19
3145  22
3146  24
3147  16
3148  19
3149  17
3150  27
3151  29
3152  25
3153  18
3154  28
3155  25
3156  20
3157  26
3158  21
3159  20
3160  20
3161  23
3162  21
3163  18
3164  22
3165  25
3166  18
3167  25
3168  16
3169  33
3170  24
3171  21
3172  25
3173  15
3174  20
3175  24
3176  22
3177  22
3178  15
3179  25
3180  31
3181  17
3182  19
3183  16
3184  25
3185  18
3186  25
3187  19
3188  18
3189  23
3190  26
3191  26
3192  28
3193  24
3194  26
3195  16
3196  20
3197  19
3198  24
3199  16
3200  21
3201  26
3202  24
3203  19
3204  30
3205  22
3206  21
3207  20
3208  22
3209  22
3210  25
3211  22
3212  20
3213  21
3214  27
3215  19
3216  20
3217  20
3218  16
3219  28
3220  29
3221  22
3222  19
3223  15
3224  24
3225  23
3226  17
3227  22
3228  20
3229  19
3230  30
3231  27
3232  25
3233  27
3234  36
3235  25
3236  19
3237  27
3238  26
3239  23
3240  17
3241  19
3242  24
3243  16
3244  27
3245  25
3246  17
3247  17
3248  23
3249  26
3250  22
3251  26
3252  16
3253  26
3254  19
3255  24
3256  24
3257  21
3258  21
3259  23
3260  28
3261  25
3262  20
3263  12
3264  26
3265  22
3266  23
3267  21
3268  19
3269  25
3270  27
3271  19
3272  20
3273  24
3274  25
3275  19
3276  25
3277  23
3278  25
3279  32
3280  17
3281  28
3282  22
3283  19
3284  18
3285  25
3286  20
3287  25
3288  22
3289  18
3290  22
3291  17
3292  25
3293  23
3294  14
3295  36
3296  29
3297  25
3298  24
3299  17
3300  20
3301  23
3302  30
3303  16
3304  13
3305  23
3306  17
3307  18
3308  16
3309  10
3310  20
3311  25
3312  24
3313  20
3314  20
3315  20
3316  24
3317  21
3318  20
3319  26
3320  28
3321  22
3322  19
3323  20
3324  17
3325  23
3326  23
3327  31
3328  22
3329  18
3330  12
3331  18
3332  31
3333  24
3334  16
3335  21
3336  28
3337  24
3338  25
3339  26
3340  23
3341  30
3342  25
3343  27
3344  19
3345  25
3346  24
3347  18
3348  19
3349  23
3350  23
3351  21
3352  16
3353  17
3354  25
3355  20
3356  15
3357  18
3358  17
3359  20
3360  14
3361  14
3362  30
3363  23
3364  26
3365  31
3366  17
3367  24
3368  18
3369  24
3370  21
3371  27
3372  19
3373  35
3374  23
3375  19
3376  21
3377  29
3378  23
3379  18
3380  29
3381  25
3382  15
3383  23
3384  27
3385  26
3386  27
3387  17
3388  25
3389  25
3390  14
3391  21
3392  21
3393  17
3394  17
3395  21
3396  22
3397  21
3398  25
3399  22
3400  25
3401  24
3402  23
3403  24
3404  23
3405  19
3406  18
3407  23
3408  24
3409  23
3410  22
3411  15
3412  10
3413  20
3414  17
3415  13
3416  14
3417  10
3418  7
3419  9
3420  11
3421  3
3422  9
3423  4
3424  3
3425  1
3426  4
3427  2
3428  1
3429  0
3430  0
3431  0
3432  0
3433  0
3434  0
3435  0
3436  0
3437  0
3438  0
3439  0
3440  0
3441  0
3442  0
3443  0
3444  0
3445  0
3446  0
3447  0
3448  0
3449  0
3450  0
3451  0
3452  0
3453  0
3454  0
3455  0
3456  0
3457  0
3458  0
3459  0
3460  0
3461  0
3462  0
3463  0
3464  0
3465  0
3466  0
3467  0
3468  0
3469  0
3470  0
3471  0
3472  0
3473  0
3474  0
3475  0
3476  0
3477  0
3478  0
3479  0
3480  0
3481  0
3482  0
3483  0
3484  0
3485  0
3486  0
3487  0
3488  0
3489  0
3490  0
3491  0
3492  0
3493  0
3494  0
3495  0
3496  0
3497  0
3498  0
3499  0
3500  0
3501  0
3502  0
3503  0
3504  0
3505  0
3506  0
3507  0
3508  0
3509  0
3510  0
3511  0
3512  0
3513  0
3514  0
3515  0
3516  0
3517  0
3518  0
3519  0
3520  0
3521  0
3522  0
3523  0
3524  0
3525  0
3526  0
3527  0
3528  0
3529  0
3530  0
3531  0
3532  0
3533  1
3534  0
3535  0
3536  0
3537  0
3538  0
3539  0
3540  0
3541  0
3542  0
3543  0
3544  0
3545  0
3546  0
3547  0
3548  0
3549  0
3550  0
3551  0
3552  0
3553  0
3554  0
3555  0
3556  0
3557  0
3558  0
3559  0
3560  0
3561  0
3562  0
3563  0
3564  0
3565  0
3566  0
3567  0
3568  0
3569  0
3570  0
3571  0
3572  0
3573  0
3574  0
3575  0
3576  0
3577  0
3578  0
3579  0
3580  0
3581  0
3582  0
3583  0
3584  0
3585  0
3586  0
3587  0
3588  1
3589  0
3590  0
3591  0
3592  0
3593  0
3594  0
3595  0
3596  0
3597  0
3598  0
3599  0
3600  0
3601  0
3602  0
3603  0
3604  0
3605  0
3606  0
3607  0
3608  0
3609  0
3610  0
3611  0
3612  0
3613  0
3614  0
3615  0
3616  0
3617  0
3618  0
3619  0
3620  0
3621  0
3622  0
3623  0
3624  0
3625  0
3626  0
3627  0
3628  0
3629  0
3630  0
3631  0
3632  0
3633  0
3634  0
3635  0
3636  0
3637  0
3638  0
3639  0
3640  0
3641  0
3642  0
3643  0
3644  0
3645  0
3646  0
3647  0
3648  0
3649  0
3650  0
3651  0
3652  0
3653  0
3654  0
3655  0
3656  0
3657  0
3658  0
3659  0
3660  0
3661  0
3662  0
3663  0
3664  0
3665  0
3666  0
3667  0
3668  0
3669  0
3670  0
3671  0
3672  0
3673  0
3674  0
3675  0
3676  0
3677  0
3678  0
3679  0
3680  0
3681  0
3682  0
3683  0
3684  0
3685  0
3686  0
3687  0
3688  0
3689  0
3690  0
3691  0
3692  0
3693  0
3694  0
3695  0
3696  0
3697  0
3698  0
3699  0
3700  0
3701  0
3702  0
3703  0
3704  0
3705  0
3706  0
3707  0
3708  0
3709  0
3710  0
3711  0
3712  0
3713  0
3714  0
3715  0
3716  0
3717  0
3718  0
3719  0
3720  0
3721  0
3722  0
3723  0
3724  0
3725  0
3726  0
3727  0
3728  0
3729  0
3730  0
3731  0
3732  0
3733  0
3734  0
3735  0
3736  0
3737  0
3738  0
3739  0
3740  0
3741  0
3742  0
3743  0
3744  0
3745  0
3746  0
3747  0
3748  0
3749  0
3750  0
3751  0
3752  0
3753  0
3754  0
3755  0
3756  0
3757  0
3758  0
3759  0
3760  0
3761  0
3762  0
3763  0
3764  0
3765  0
3766  0
3767  0
3768  0
3769  0
3770  0
3771  0
3772  0
3773  0
3774  0
3775  0
3776  0
3777  0
3778  0
3779  0
3780  0
3781  0
3782  0
3783  0
3784  0
3785  0
3786  0
3787  0
3788  0
3789  0
3790  0
3791  0
3792  0
3793  0
3794  0
3795  0
3796  0
3797  0
3798  0
3799  0
3800  0
3801  0
3802  0
3803  0
3804  0
3805  0
3806  0
3807  0
3808  0
3809  0
3810  0
3811  0
3812  0
3813  0
3814  0
3815  0
3816  0
3817  0
3818  0
3819  0
3820  0
3821  0
3822  0
3823  0
3824  0
3825  0
3826  0
3827  0
3828  0
3829  0
3830  0
3831  0
3832  0
3833  0
3834  0
3835  0
3836  0
3837  0
3838  0
3839  0
3840  0
3841  0
3842  0
3843  0
3844  0
3845  0
3846  0
3847  0
3848  0
3849  0
3850  0
3851  0
3852  0
3853  0
3854  0
3855  0
3856  0
3857  0
3858  0
3859  0
3860  0
3861  0
3862  0
3863  0
3864  0
3865  0
3866  0
3867  0
3868  0
3869  0
3870  0
3871  0
3872  0
3873  0
3874  0
3875  0
3876  0
3877  0
3878  0
3879  0
3880  0
3881  0
3882  0
3883  0
3884  0
3885  0
3886  0
3887  0
3888  0
3889  0
3890  0
3891  0
3892  0
3893  0
3894  0
3895  0
3896  0
3897  0
3898  0
3899  0
3900  0
3901  0
3902  0
3903  0
3904  0
3905  0
3906  0
3907  0
3908  0
3909  0
3910  0
3911  0
3912  0
3913  0
3914  0
3915  0
3916  0
3917  0
3918  0
3919  0
3920  0
3921  0
3922  0
3923  0
3924  0
3925  0
3926  0
3927  0
3928  0
3929  0
3930  0
3931  0
3932  0
3933  0
3934  0
3935  0
3936  0
3937  0
3938  0
3939  0
3940  0
3941  0
3942  0
3943  0
3944  0
3945  0
3946  0
3947  0
3948  0
3949  0
3950  0
3951  0
3952  0
3953  0
3954  0
3955  0
3956  0
3957  0
3958  0
3959  0
3960  0
3961  0
3962  0
3963  0
3964  0
3965  0
3966  0
3967  0
3968  0
3969  0
3970  0
3971  0
3972  0
3973  0
3974  0
3975  0
3976  0
3977  0
3978  0
3979  0
3980  0
3981  0
3982  0
3983  0
3984  0
3985  0
3986  0
3987  0
3988  0
3989  0
3990  0
3991  0
3992  0
3993  0
3994  0
3995  0
3996  0
3997  0
3998  0
3999  0
4000  0
4001  0
4002  0
4003  0
4004  0
4005  0
4006  0
4007  0
4008  0
4009  0
4010  0
4011  0
4012  0
4013  0
4014  0
4015  0
4016  0
4017  0
4018  0
4019  0
4020  0
4021  0
4022  0
4023  0
4024  0
4025  0
4026  0
4027  0
4028  0
4029  0
4030  0
4031  0
4032  0
4033  0
4034  0
4035  0
4036  0
4037  0
4038  0
4039  0
4040  0
4041  0
4042  0
4043  0
4044  0
4045  0
4046  0
4047  0
4048  0
4049  0
4050  0
4051  0
4052  0
4053  0
4054  0
4055  0
4056  0
4057  0
4058  0
4059  0
4060  0
4061  0
4062  0
4063  0
4064  0
4065  0
4066  0
4067  0
4068  0
4069  0
4070  0
4071  0
4072  0
4073  0
4074  0
4075  0
4076  0
4077  0
4078  0
4079  0
4080  0
4081  0
4082  0
4083  0
4084  0
4085  0
4086  0
4087  0
4088  0
4089  0
4090  0
4091  0
4092  0
4093  0
4094  0
4095  0
