0  0
1  0
2  0
3  0
4  0
5  0
6  0
7  0
8  0
9  0
10  0
11  0
12  0
13  0
14  6
15  104
16  382
17  392
18  126
19  23
20  18
21  7
22  3
23  0
24  2
25  3
26  3
27  3
28  2
29  3
30  3
31  5
32  2
33  3
34  3
35  1
36  2
37  1
38  1
39  1
40  1
41  2
42  3
43  1
44  2
45  1
46  0
47  0
48  0
49  0
50  0
51  0
52  0
53  0
54  0
55  0
56  0
57  0
58  0
59  0
60  0
61  0
62  0
63  0
64  0
65  0
66  0
67  0
68  0
69  0
70  0
71  0
72  0
73  0
74  0
75  0
76  0
77  0
78  0
79  0
80  0
81  0
82  0
83  0
84  0
85  0
86  0
87  0
88  0
89  0
90  0
91  0
92  0
93  0
94  0
95  0
96  0
97  0
98  0
99  0
100  0
101  0
102  0
103  0
104  0
105  0
106  0
107  0
108  0
109  0
110  0
111  0
112  0
113  0
114  0
115  0
116  0
117  0
118  0
119  0
120  0
121  0
122  0
123  0
124  0
125  0
126  0
127  0
128  0
129  0
130  0
131  0
132  0
133  0
134  0
135  0
136  0
137  0
138  0
139  0
140  0
141  0
142  0
143  0
144  0
145  0
146  0
147  0
148  0
149  0
150  0
151  0
152  0
153  0
154  0
155  0
156  0
157  0
158  0
159  0
160  0
161  0
162  0
163  0
164  0
165  0
166  0
167  0
168  0
169  0
170  0
171  0
172  0
173  0
174  0
175  0
176  0
177  0
178  0
179  0
180  0
181  3
182  82
183  216
184  331
185  435
186  427
187  333
188  154
189  82
190  63
191  37
192  36
193  31
194  33
195  26
196  33
197  29
198  25
199  31
200  18
201  21
202  25
203  18
204  25
205  14
206  24
207  16
208  22
209  29
210  25
211  23
212  14
213  21
214  24
215  24
216  22
217  12
218  20
219  23
220  19
221  24
222  23
223  17
224  16
225  9
226  17
227  19
228  14
229  20
230  13
231  19
232  15
233  11
234  17
235  16
236  15
237  14
238  18
239  19
240  19
241  18
242  14
243  18
244  18
245  25
246  25
247  29
248  23
249  29
250  29
251  7
252  23
253  17
254  20
255  25
256  20
257  12
258  13
259  19
260  15
261  20
262  16
263  20
264  15
265  25
266  19
267  26
268  19
269  26
270  14
271  21
272  20
273  15
274  16
275  19
276  20
277  21
278  24
279  23
280  14
281  18
282  17
283  25
284  24
285  17
286  15
287  18
288  20
289  16
290  18
291  17
292  17
293  19
294  17
295  17
296  18
297  21
298  21
299  25
300  17
301  22
302  31
303  18
304  12
305  22
306  14
307  16
308  19
309  21
310  19
311  15
312  17
313  26
314  12
315  22
316  18
317  22
318  24
319  14
320  15
321  22
322  16
323  20
324  16
325  13
326  17
327  9
328  23
329  18
330  19
331  16
332  20
333  17
334  20
335  15
336  16
337  20
338  15
339  25
340  29
341  23
342  15
343  25
344  20
345  23
346  17
347  12
348  17
349  23
350  17
351  21
352  20
353  25
354  15
355  17
356  13
357  6
358  26
359  20
360  17
361  21
362  18
363  23
364  17
365  20
366  18
367  18
368  21
369  16
370  18
371  19
372  20
373  32
374  14
375  20
376  19
377  19
378  19
379  18
380  23
381  21
382  31
383  21
384  9
385  23
386  26
387  20
388  18
389  14
390  21
391  20
392  18
393  22
394  15
395  30
396  18
397  11
398  16
399  17
400  18
401  14
402  20
403  16
404  16
405  13
406  18
407  16
408  18
409  26
410  12
411  19
412  20
413  19
414  23
415  23
416  17
417  11
418  12
419  16
420  19
421  20
422  26
423  18
424  16
425  19
426  22
427  16
428  23
429  16
430  23
431  24
432  12
433  25
434  13
435  20
436  20
437  25
438  18
439  18
440  22
441  17
442  13
443  11
444  21
445  25
446  6
447  23
448  12
449  18
450  14
451  16
452  26
453  24
454  20
455  15
456  15
457  16
458  17
459  20
460  22
461  14
462  13
463  20
464  18
465  17
466  21
467  18
468  18
469  17
470  17
471  23
472  24
473  21
474  24
475  17
476  19
477  19
478  22
479  19
480  17
481  17
482  16
483  25
484  14
485  14
486  14
487  18
488  21
489  16
490  19
491  32
492  23
493  16
494  20
495  14
496  24
497  21
498  22
499  19
500  21
501  28
502  15
503  14
504  18
505  7
506  21
507  18
508  19
509  20
510  25
511  18
512  20
513  16
514  15
515  13
516  21
517  19
518  23
519  13
520  9
521  14
522  14
523  17
524  17
525  22
526  13
527  27
528  15
529  21
530  20
531  21
532  28
533  20
534  21
535  22
536  24
537  15
538  20
539  14
540  20
541  19
542  26
543  21
544  29
545  19
546  21
547  16
548  13
549  16
550  12
551  21
552  20
553  14
554  24
555  14
556  16
557  18
558  16
559  20
560  23
561  20
562  14
563  21
564  23
565  13
566  17
567  19
568  23
569  22
570  30
571  18
572  18
573  21
574  19
575  19
576  15
577  14
578  16
579  19
580  19
581  24
582  9
583  12
584  17
585  11
586  13
587  25
588  19
589  14
590  9
591  17
592  16
593  24
594  23
595  21
596  16
597  17
598  11
599  13
600  17
601  13
602  19
603  16
604  16
605  14
606  16
607  16
608  22
609  20
610  25
611  21
612  14
613  27
614  22
615  24
616  19
617  17
618  23
619  18
620  17
621  27
622  14
623  16
624  18
625  20
626  16
627  15
628  21
629  22
630  13
631  25
632  14
633  18
634  22
635  17
636  19
637  22
638  22
639  16
640  23
641  20
642  15
643  20
644  15
645  22
646  9
647  15
648  7
649  15
650  21
651  20
652  12
653  14
654  16
655  14
656  20
657  26
658  20
659  11
660  27
661  27
662  19
663  7
664  25
665  20
666  31
667  20
668  19
669  16
670  17
671  14
672  19
673  19
674  23
675  23
676  18
677  24
678  25
679  17
680  23
681  17
682  20
683  19
684  20
685  19
686  18
687  33
688  17
689  14
690  17
691  19
692  23
693  19
694  20
695  24
696  20
697  16
698  18
699  20
700  18
701  18
702  20
703  23
704  9
705  23
706  15
707  14
708  20
709  21
710  14
711  18
712  15
713  24
714  25
715  10
716  17
717  28
718  17
719  18
720  30
721  19
722  26
723  15
724  18
725  19
726  16
727  27
728  15
729  16
730  14
731  16
732  23
733  14
734  18
735  20
736  18
737  21
738  22
739  13
740  27
741  12
742  15
743  20
744  24
745  16
746  17
747  21
748  18
749  12
750  8
751  23
752  25
753  11
754  21
755  21
756  19
757  18
758  13
759  21
760  21
761  22
762  17
763  19
764  18
765  21
766  30
767  16
768  20
769  16
770  22
771  15
772  20
773  14
774  21
775  19
776  16
777  13
778  14
779  20
780  20
781  18
782  29
783  24
784  11
785  17
786  30
787  19
788  23
789  20
790  21
791  19
792  14
793  17
794  18
795  22
796  24
797  19
798  25
799  20
800  22
801  16
802  18
803  13
804  17
805  16
806  11
807  22
808  21
809  21
810  20
811  15
812  16
813  20
814  20
815  24
816  18
817  19
818  21
819  16
820  20
821  25
822  18
823  12
824  16
825  12
826  19
827  21
828  29
829  21
830  22
831  21
832  17
833  21
834  20
835  15
836  17
837  18
838  9
839  19
840  13
841  10
842  22
843  17
844  21
845  20
846  16
847  23
848  26
849  13
850  21
851  23
852  21
853  16
854  25
855  21
856  17
857  9
858  22
859  21
860  19
861  21
862  19
863  19
864  9
865  23
866  15
867  19
868  23
869  19
870  20
871  20
872  14
873  18
874  11
875  15
876  23
877  22
878  17
879  10
880  19
881  17
882  20
883  16
884  21
885  23
886  22
887  14
888  16
889  10
890  20
891  23
892  12
893  17
894  22
895  18
896  20
897  11
898  15
899  29
900  17
901  17
902  24
903  24
904  25
905  15
906  19
907  18
908  25
909  17
910  16
911  15
912  21
913  19
914  17
915  18
916  20
917  19
918  15
919  19
920  16
921  22
922  10
923  21
924  18
925  15
926  16
927  14
928  19
929  20
930  23
931  17
932  22
933  21
934  22
935  21
936  14
937  24
938  15
939  23
940  21
941  21
942  22
943  23
944  18
945  20
946  18
947  24
948  19
949  20
950  20
951  14
952  17
953  24
954  20
955  17
956  31
957  20
958  13
959  22
960  20
961  16
962  19
963  14
964  13
965  19
966  14
967  20
968  21
969  19
970  11
971  14
972  16
973  22
974  20
975  22
976  24
977  13
978  18
979  19
980  20
981  17
982  16
983  17
984  24
985  20
986  19
987  12
988  17
989  19
990  23
991  16
992  22
993  19
994  16
995  20
996  16
997  18
998  30
999  23
1000  16
1001  14
1002  20
1003  16
1004  15
1005  18
1006  14
1007  18
1008  15
1009  34
1010  17
1011  24
1012  18
1013  26
1014  23
1015  12
1016  17
1017  20
1018  18
1019  19
1020  24
1021  18
1022  20
1023  29
1024  18
1025  13
1026  16
1027  19
1028  26
1029  22
1030  17
1031  18
1032  15
1033  19
1034  21
1035  18
1036  21
1037  29
1038  16
1039  28
1040  25
1041  23
1042  18
1043  21
1044  20
1045  19
1046  24
1047  25
1048  13
1049  29
1050  21
1051  19
1052  17
1053  24
1054  14
1055  24
1056  20
1057  14
1058  25
1059  18
1060  15
1061  17
1062  28
1063  17
1064  15
1065  29
1066  20
1067  19
1068  17
1069  18
1070  16
1071  21
1072  30
1073  27
1074  19
1075  14
1076  21
1077  16
1078  25
1079  20
1080  17
1081  26
1082  18
1083  22
1084  22
1085  15
1086  17
1087  14
1088  23
1089  22
1090  13
1091  20
1092  14
1093  20
1094  20
1095  28
1096  19
1097  14
1098  14
1099  24
1100  24
1101  17
1102  16
1103  18
1104  14
1105  15
1106  18
1107  21
1108  21
1109  10
1110  24
1111  21
1112  27
1113  13
1114  26
1115  13
1116  20
1117  19
1118  16
1119  24
1120  15
1121  26
1122  20
1123  19
1124  24
1125  24
1126  28
1127  13
1128  21
1129  14
1130  23
1131  18
1132  14
1133  14
1134  27
1135  25
1136  27
1137  20
1138  22
1139  15
1140  13
1141  24
1142  23
1143  25
1144  22
1145  22
1146  27
1147  23
1148  30
1149  26
1150  13
1151  25
1152  19
1153  18
1154  28
1155  21
1156  24
1157  21
1158  21
1159  21
1160  23
1161  24
1162  24
1163  25
1164  17
1165  21
1166  17
1167  24
1168  23
1169  19
1170  24
1171  17
1172  27
1173  28
1174  20
1175  34
1176  23
1177  23
1178  26
1179  21
1180  24
1181  21
1182  20
1183  16
1184  19
1185  24
1186  14
1187  20
1188  22
1189  19
1190  28
1191  24
1192  26
1193  21
1194  17
1195  23
1196  20
1197  14
1198  21
1199  13
1200  24
1201  19
1202  26
1203  20
1204  26
1205  20
1206  22
1207  20
1208  19
1209  30
1210  25
1211  11
1212  18
1213  24
1214  21
1215  20
1216  17
1217  27
1218  12
1219  23
1220  17
1221  28
1222  30
1223  16
1224  23
1225  12
1226  27
1227  24
1228  15
1229  18
1230  32
1231  20
1232  25
1233  23
1234  21
1235  13
1236  19
1237  16
1238  23
1239  29
1240  16
1241  32
1242  20
1243  11
1244  21
1245  24
1246  21
1247  28
1248  23
1249  20
1250  27
1251  24
1252  36
1253  26
1254  22
1255  24
1256  15
1257  30
1258  25
1259  18
1260  24
1261  23
1262  27
1263  16
1264  24
1265  20
1266  27
1267  28
1268  22
1269  27
1270  19
1271  23
1272  30
1273  28
1274  24
1275  24
1276  29
1277  22
1278  27
1279  27
1280  24
1281  28
1282  22
1283  28
1284  32
1285  25
1286  28
1287  20
1288  25
1289  36
1290  19
1291  32
1292  24
1293  24
1294  30
1295  24
1296  35
1297  21
1298  27
1299  28
1300  34
1301  19
1302  30
1303  25
1304  26
1305  36
1306  27
1307  26
1308  21
1309  30
1310  30
1311  30
1312  24
1313  21
1314  26
1315  30
1316  28
1317  31
1318  35
1319  28
1320  29
1321  26
1322  42
1323  41
1324  35
1325  38
1326  45
1327  32
1328  45
1329  41
1330  49
1331  59
1332  37
1333  50
1334  58
1335  32
1336  49
1337  45
1338  51
1339  27
1340  42
1341  38
1342  32
1343  46
1344  44
1345  38
1346  42
1347  39
1348  33
1349  44
1350  38
1351  30
1352  36
1353  35
1354  27
1355  22
1356  21
1357  30
1358  27
1359  32
1360  32
1361  24
1362  28
1363  29
1364  15
1365  23
1366  26
1367  20
1368  33
1369  28
1370  32
1371  23
1372  24
1373  26
1374  21
1375  15
1376  19
1377  25
1378  25
1379  19
1380  23
1381  25
1382  24
1383  22
1384  22
1385  28
1386  17
1387  25
1388  21
1389  24
1390  26
1391  24
1392  32
1393  25
1394  22
1395  25
1396  17
1397  24
1398  24
1399  25
1400  24
1401  30
1402  18
1403  21
1404  26
1405  29
1406  23
1407  20
1408  25
1409  28
1410  23
1411  30
1412  27
1413  33
1414  17
1415  29
1416  24
1417  21
1418  21
1419  20
1420  16
1421  23
1422  25
1423  24
1424  25
1425  30
1426  21
1427  29
1428  14
1429  18
1430  17
1431  25
1432  30
1433  16
1434  23
1435  40
1436  29
1437  25
1438  33
1439  18
1440  32
1441  20
1442  28
1443  23
1444  21
1445  18
1446  19
1447  30
1448  18
1449  26
1450  25
1451  26
1452  14
1453  27
1454  29
1455  28
1456  22
1457  29
1458  18
1459  22
1460  24
1461  19
1462  24
1463  18
1464  20
1465  27
1466  28
1467  16
1468  21
1469  33
1470  29
1471  18
1472  22
1473  20
1474  22
1475  21
1476  20
1477  23
1478  36
1479  14
1480  18
1481  16
1482  19
1483  18
1484  21
1485  29
1486  18
1487  22
1488  20
1489  15
1490  23
1491  32
1492  11
1493  20
1494  9
1495  16
1496  23
1497  25
1498  18
1499  24
1500  25
1501  25
1502  20
1503  18
1504  27
1505  27
1506  20
1507  26
1508  17
1509  19
1510  12
1511  24
1512  10
1513  25
1514  22
1515  20
1516  31
1517  25
1518  21
1519  20
1520  17
1521  25
1522  30
1523  15
1524  15
1525  29
1526  15
1527  18
1528  25
1529  27
1530  20
1531  18
1532  22
1533  14
1534  15
1535  27
1536  27
1537  19
1538  22
1539  17
1540  18
1541  20
1542  21
1543  23
1544  20
1545  19
1546  22
1547  33
1548  21
1549  20
1550  26
1551  24
1552  13
1553  20
1554  17
1555  18
1556  20
1557  18
1558  16
1559  14
1560  23
1561  24
1562  18
1563  21
1564  22
1565  20
1566  18
1567  24
1568  15
1569  31
1570  16
1571  22
1572  20
1573  25
1574  20
1575  18
1576  13
1577  18
1578  23
1579  23
1580  21
1581  13
1582  20
1583  29
1584  22
1585  19
1586  13
1587  22
1588  21
1589  22
1590  22
1591  37
1592  20
1593  22
1594  20
1595  21
1596  20
1597  20
1598  17
1599  23
1600  19
1601  13
1602  20
1603  22
1604  23
1605  18
1606  28
1607  19
1608  18
1609  23
1610  17
1611  22
1612  13
1613  21
1614  14
1615  19
1616  20
1617  18
1618  19
1619  18
1620  21
1621  30
1622  21
1623  24
1624  26
1625  20
1626  16
1627  18
1628  18
1629  23
1630  19
1631  13
1632  18
1633  15
1634  25
1635  22
1636  21
1637  23
1638  17
1639  17
1640  17
1641  17
1642  15
1643  17
1644  17
1645  22
1646  27
1647  18
1648  13
1649  18
1650  17
1651  22
1652  14
1653  17
1654  24
1655  25
1656  23
1657  21
1658  25
1659  23
1660  22
1661  15
1662  17
1663  16
1664  14
1665  19
1666  10
1667  9
1668  26
1669  23
1670  25
1671  26
1672  18
1673  27
1674  22
1675  19
1676  25
1677  26
1678  22
1679  23
1680  14
1681  23
1682  30
1683  17
1684  23
1685  17
1686  21
1687  15
1688  6
1689  18
1690  17
1691  26
1692  27
1693  14
1694  14
1695  20
1696  22
1697  19
1698  24
1699  12
1700  22
1701  19
1702  22
1703  23
1704  25
1705  13
1706  36
1707  27
1708  26
1709  15
1710  13
1711  23
1712  30
1713  25
1714  16
1715  28
1716  16
1717  26
1718  19
1719  24
1720  18
1721  17
1722  18
1723  21
1724  34
1725  19
1726  20
1727  19
1728  27
1729  18
1730  12
1731  18
1732  16
1733  19
1734  16
1735  23
1736  25
1737  20
1738  26
1739  26
1740  16
1741  24
1742  26
1743  15
1744  19
1745  23
1746  18
1747  16
1748  22
1749  25
1750  23
1751  17
1752  18
1753  26
1754  12
1755  21
1756  35
1757  20
1758  27
1759  14
1760  14
1761  23
1762  21
1763  21
1764  20
1765  22
1766  14
1767  18
1768  17
1769  23
1770  22
1771  17
1772  27
1773  18
1774  22
1775  17
1776  18
1777  21
1778  20
1779  21
1780  14
1781  13
1782  17
1783  21
1784  21
1785  18
1786  20
1787  31
1788  26
1789  22
1790  21
1791  19
1792  21
1793  20
1794  25
1795  17
1796  13
1797  21
1798  16
1799  31
1800  25
1801  15
1802  23
1803  17
1804  20
1805  18
1806  18
1807  29
1808  14
1809  21
1810  28
1811  16
1812  6
1813  17
1814  27
1815  15
1816  29
1817  23
1818  16
1819  18
1820  24
1821  17
1822  26
1823  21
1824  27
1825  22
1826  15
1827  17
1828  17
1829  21
1830  21
1831  19
1832  14
1833  31
1834  15
1835  23
1836  29
1837  25
1838  17
1839  13
1840  19
1841  21
1842  24
1843  13
1844  16
1845  16
1846  16
1847  24
1848  18
1849  21
1850  32
1851  17
1852  25
1853  21
1854  26
1855  17
1856  29
1857  21
1858  17
1859  20
1860  22
1861  19
1862  19
1863  20
1864  24
1865  24
1866  18
1867  19
1868  18
1869  22
1870  18
1871  18
1872  29
1873  23
1874  16
1875  21
1876  22
1877  19
1878  30
1879  31
1880  26
1881  34
1882  27
1883  27
1884  35
1885  22
1886  21
1887  18
1888  30
1889  24
1890  29
1891  27
1892  31
1893  25
1894  16
1895  31
1896  21
1897  22
1898  25
1899  27
1900  21
1901  27
1902  20
1903  27
1904  28
1905  28
1906  24
1907  21
1908  24
1909  21
1910  22
1911  21
1912  33
1913  29
1914  21
1915  33
1916  24
1917  33
1918  30
1919  37
1920  18
1921  29
1922  27
1923  31
1924  39
1925  38
1926  29
1927  30
1928  46
1929  35
1930  30
1931  26
1932  44
1933  39
1934  34
1935  43
1936  50
1937  49
1938  41
1939  48
1940  49
1941  56
1942  49
1943  52
1944  59
1945  65
1946  66
1947  44
1948  55
1949  73
1950  80
1951  77
1952  99
1953  98
1954  124
1955  125
1956  131
1957  129
1958  154
1959  162
1960  174
1961  194
1962  202
1963  234
1964  241
1965  278
1966  288
1967  313
1968  343
1969  358
1970  387
1971  422
1972  423
1973  507
1974  518
1975  529
1976  525
1977  615
1978  630
1979  676
1980  684
1981  756
1982  784
1983  798
1984  818
1985  903
1986  887
1987  990
1988  980
1989  973
1990  1013
1991  1114
1992  1062
1993  1179
1994  1096
1995  1218
1996  1140
1997  1274
1998  1309
1999  1297
2000  1265
2001  1373
2002  1285
2003  1348
2004  1293
2005  1390
2006  1329
2007  1462
2008  1415
2009  1385
2010  1402
2011  1406
2012  1383
2013  1290
2014  1333
2015  1329
2016  1298
2017  1228
2018  1246
2019  1184
2020  1091
2021  1105
2022  1015
2023  1015
2024  913
2025  841
2026  829
2027  708
2028  663
2029  568
2030  545
2031  468
2032  418
2033  374
2034  344
2035  300
2036  286
2037  233
2038  232
2039  214
2040  202
2041  194
2042  165
2043  160
2044  157
2045  173
2046  126
2047  116
2048  135
2049  120
2050  129
2051  101
2052  86
2053  105
2054  125
2055  93
2056  81
2057  93
2058  120
2059  88
2060  92
2061  97
2062  92
2063  90
2064  89
2065  78
2066  70
2067  77
2068  90
2069  83
2070  94
2071  78
2072  95
2073  64
2074  94
2075  70
2076  65
2077  98
2078  86
2079  76
2080  77
2081  78
2082  92
2083  81
2084  62
2085  79
2086  79
2087  76
2088  75
2089  83
2090  65
2091  67
2092  72
2093  78
2094  69
2095  68
2096  87
2097  81
2098  72
2099  64
2100  73
2101  56
2102  80
2103  68
2104  60
2105  63
2106  58
2107  63
2108  57
2109  58
2110  54
2111  64
2112  72
2113  59
2114  60
2115  63
2116  68
2117  47
2118  59
2119  61
2120  59
2121  57
2122  49
2123  46
2124  62
2125  54
2126  49
2127  46
2128  48
2129  53
2130  34
2131  47
2132  51
2133  44
2134  39
2135  38
2136  41
2137  41
2138  49
2139  45
2140  32
2141  49
2142  43
2143  38
2144  37
2145  37
2146  35
2147  31
2148  32
2149  32
2150  29
2151  31
2152  34
2153  40
2154  31
2155  30
2156  28
2157  36
2158  28
2159  27
2160  29
2161  24
2162  19
2163  25
2164  24
2165  21
2166  29
2167  24
2168  20
2169  19
2170  18
2171  31
2172  14
2173  34
2174  20
2175  26
2176  21
2177  25
2178  26
2179  26
2180  20
2181  21
2182  29
2183  22
2184  24
2185  20
2186  22
2187  11
2188  20
2189  22
2190  20
2191  23
2192  18
2193  18
2194  24
2195  14
2196  23
2197  25
2198  21
2199  18
2200  19
2201  21
2202  27
2203  24
2204  26
2205  16
2206  17
2207  16
2208  22
2209  20
2210  21
2211  28
2212  15
2213  21
2214  22
2215  13
2216  28
2217  18
2218  19
2219  22
2220  18
2221  16
2222  20
2223  21
2224  21
2225  24
2226  23
2227  27
2228  19
2229  25
2230  23
2231  18
2232  24
2233  16
2234  21
2235  15
2236  27
2237  25
2238  25
2239  27
2240  18
2241  25
2242  17
2243  21
2244  16
2245  17
2246  20
2247  20
2248  20
2249  17
2250  25
2251  18
2252  18
2253  13
2254  31
2255  21
2256  19
2257  16
2258  22
2259  15
2260  21
2261  25
2262  19
2263  16
2264  23
2265  17
2266  17
2267  15
2268  23
2269  16
2270  18
2271  18
2272  17
2273  21
2274  17
2275  17
2276  13
2277  24
2278  14
2279  19
2280  22
2281  22
2282  24
2283  9
2284  27
2285  22
2286  22
2287  11
2288  18
2289  15
2290  16
2291  14
2292  24
2293  16
2294  19
2295  23
2296  22
2297  25
2298  19
2299  16
2300  11
2301  25
2302  15
2303  14
2304  18
2305  16
2306  12
2307  19
2308  11
2309  26
2310  19
2311  14
2312  20
2313  29
2314  10
2315  14
2316  17
2317  18
2318  24
2319  19
2320  19
2321  20
2322  22
2323  18
2324  20
2325  26
2326  23
2327  24
2328  17
2329  17
2330  17
2331  21
2332  8
2333  16
2334  22
2335  18
2336  10
2337  13
2338  17
2339  21
2340  23
2341  8
2342  16
2343  17
2344  21
2345  19
2346  12
2347  21
2348  17
2349  16
2350  14
2351  16
2352  22
2353  23
2354  16
2355  23
2356  28
2357  18
2358  26
2359  25
2360  17
2361  16
2362  22
2363  21
2364  17
2365  21
2366  20
2367  11
2368  12
2369  30
2370  14
2371  13
2372  14
2373  18
2374  12
2375  19
2376  23
2377  20
2378  14
2379  20
2380  20
2381  20
2382  19
2383  19
2384  21
2385  23
2386  23
2387  22
2388  19
2389  23
2390  24
2391  15
2392  20
2393  30
2394  27
2395  17
2396  25
2397  12
2398  24
2399  11
2400  19
2401  11
2402  18
2403  24
2404  21
2405  18
2406  23
2407  14
2408  13
2409  13
2410  25
2411  16
2412  19
2413  24
2414  21
2415  18
2416  30
2417  22
2418  17
2419  25
2420  13
2421  20
2422  10
2423  15
2424  19
2425  14
2426  16
2427  19
2428  16
2429  20
2430  19
2431  22
2432  17
2433  16
2434  23
2435  25
2436  24
2437  17
2438  22
2439  19
2440  19
2441  19
2442  18
2443  13
2444  22
2445  28
2446  17
2447  20
2448  16
2449  18
2450  20
2451  25
2452  19
2453  15
2454  19
2455  17
2456  24
2457  20
2458  22
2459  21
2460  21
2461  15
2462  12
2463  20
2464  13
2465  17
2466  20
2467  21
2468  23
2469  23
2470  14
2471  17
2472  22
2473  17
2474  16
2475  18
2476  10
2477  19
2478  17
2479  18
2480  18
2481  22
2482  27
2483  24
2484  20
2485  17
2486  17
2487  26
2488  19
2489  14
2490  18
2491  30
2492  16
2493  18
2494  17
2495  18
2496  23
2497  17
2498  25
2499  22
2500  22
2501  25
2502  22
2503  12
2504  24
2505  19
2506  23
2507  24
2508  24
2509  19
2510  18
2511  17
2512  16
2513  25
2514  19
2515  25
2516  20
2517  20
2518  14
2519  24
2520  19
2521  13
2522  21
2523  26
2524  13
2525  21
2526  20
2527  20
2528  27
2529  17
2530  12
2531  21
2532  19
2533  15
2534  18
2535  16
2536  21
2537  20
2538  21
2539  10
2540  22
2541  16
2542  15
2543  18
2544  19
2545  24
2546  18
2547  22
2548  11
2549  23
2550  16
2551  14
2552  21
2553  18
2554  26
2555  10
2556  11
2557  19
2558  18
2559  15
2560  24
2561  14
2562  16
2563  24
2564  14
2565  29
2566  22
2567  14
2568  21
2569  20
2570  19
2571  13
2572  11
2573  11
2574  15
2575  22
2576  26
2577  23
2578  16
2579  14
2580  19
2581  28
2582  24
2583  14
2584  20
2585  22
2586  21
2587  24
2588  25
2589  15
2590  15
2591  14
2592  17
2593  19
2594  25
2595  22
2596  15
2597  16
2598  16
2599  19
2600  16
2601  17
2602  14
2603  17
2604  15
2605  20
2606  14
2607  17
2608  23
2609  18
2610  16
2611  16
2612  19
2613  16
2614  25
2615  19
2616  20
2617  18
2618  14
2619  10
2620  18
2621  21
2622  12
2623  20
2624  29
2625  17
2626  20
2627  18
2628  21
2629  24
2630  24
2631  14
2632  11
2633  20
2634  22
2635  18
2636  19
2637  18
2638  12
2639  19
2640  15
2641  21
2642  11
2643  24
2644  13
2645  11
2646  16
2647  18
2648  17
2649  20
2650  18
2651  13
2652  18
2653  20
2654  18
2655  16
2656  23
2657  22
2658  18
2659  17
2660  14
2661  18
2662  25
2663  24
2664  20
2665  19
2666  16
2667  15
2668  13
2669  25
2670  26
2671  27
2672  19
2673  18
2674  10
2675  20
2676  24
2677  20
2678  19
2679  15
2680  15
2681  21
2682  20
2683  19
2684  14
2685  27
2686  21
2687  20
2688  27
2689  17
2690  28
2691  21
2692  16
2693  21
2694  23
2695  23
2696  24
2697  14
2698  19
2699  19
2700  17
2701  23
2702  20
2703  19
2704  15
2705  12
2706  20
2707  18
2708  18
2709  25
2710  25
2711  25
2712  14
2713  20
2714  17
2715  17
2716  16
2717  21
2718  21
2719  17
2720  15
2721  12
2722  18
2723  23
2724  24
2725  20
2726  14
2727  21
2728  21
2729  17
2730  21
2731  20
2732  20
2733  12
2734  22
2735  25
2736  22
2737  19
2738  16
2739  15
2740  16
2741  17
2742  17
2743  31
2744  20
2745  19
2746  22
2747  21
2748  25
2749  20
2750  26
2751  23
2752  21
2753  15
2754  18
2755  10
2756  24
2757  18
2758  14
2759  26
2760  29
2761  23
2762  18
2763  14
2764  19
2765  17
2766  23
2767  16
2768  13
2769  21
2770  13
2771  23
2772  26
2773  20
2774  17
2775  21
2776  22
2777  21
2778  18
2779  20
2780  15
2781  17
2782  21
2783  24
2784  22
2785  20
2786  21
2787  19
2788  26
2789  25
2790  23
2791  23
2792  14
2793  23
2794  10
2795  18
2796  23
2797  23
2798  23
2799  22
2800  14
2801  22
2802  15
2803  23
2804  16
2805  17
2806  18
2807  13
2808  18
2809  20
2810  24
2811  20
2812  23
2813  21
2814  18
2815  11
2816  19
2817  11
2818  20
2819  18
2820  24
2821  15
2822  24
2823  15
2824  16
2825  14
2826  16
2827  16
2828  20
2829  23
2830  26
2831  18
2832  21
2833  17
2834  22
2835  21
2836  15
2837  25
2838  15
2839  17
2840  18
2841  25
2842  15
2843  20
2844  22
2845  25
2846  22
2847  25
2848  17
2849  19
2850  25
2851  17
2852  21
2853  23
2854  22
2855  13
2856  19
2857  21
2858  16
2859  24
2860  29
2861  22
2862  20
2863  21
2864  20
2865  16
2866  21
2867  23
2868  14
2869  19
2870  16
2871  13
2872  15
2873  11
2874  15
2875  29
2876  13
2877  18
2878  22
2879  13
2880  15
2881  20
2882  20
2883  20
2884  19
2885  18
2886  22
2887  24
2888  28
2889  12
2890  23
2891  18
2892  15
2893  23
2894  22
2895  21
2896  25
2897  20
2898  24
2899  20
2900  22
2901  13
2902  25
2903  18
2904  17
2905  24
2906  19
2907  15
2908  15
2909  14
2910  20
2911  19
2912  25
2913  18
2914  18
2915  21
2916  19
2917  19
2918  22
2919  22
2920  14
2921  28
2922  31
2923  20
2924  20
2925  17
2926  10
2927  14
2928  18
2929  25
2930  19
2931  17
2932  23
2933  24
2934  25
2935  18
2936  20
2937  20
2938  25
2939  25
2940  22
2941  23
2942  40
2943  43
2944  37
2945  45
2946  50
2947  54
2948  40
2949  49
2950  51
2951  74
2952  66
2953  68
2954  84
2955  65
2956  81
2957  71
2958  80
2959  85
2960  88
2961  93
2962  66
2963  76
2964  84
2965  79
2966  67
2967  88
2968  77
2969  72
2970  51
2971  54
2972  70
2973  54
2974  63
2975  52
2976  45
2977  49
2978  45
2979  38
2980  27
2981  35
2982  33
2983  36
2984  34
2985  33
2986  26
2987  32
2988  26
2989  38
2990  40
2991  29
2992  29
2993  23
2994  35
2995  26
2996  24
2997  33
2998  31
2999  27
3000  33
3001  31
3002  20
3003  26
3004  29
3005  19
3006  22
3007  24
3008  35
3009  26
3010  25
3011  18
3012  31
3013  33
3014  22
3015  13
3016  26
3017  24
3018  25
3019  18
3020  24
3021  17
3022  28
3023  24
3024  20
3025  29
3026  34
3027  18
3028  22
3029  30
3030  18
3031  24
3032  20
3033  17
3034  21
3035  21
3036  22
3037  23
3038  19
3039  32
3040  15
3041  30
3042  28
3043  23
3044  21
3045  24
3046  34
3047  29
3048  18
3049  20
3050  24
3051  18
3052  28
3053  20
3054  27
3055  17
3056  14
3057  12
3058  28
3059  35
3060  25
3061  29
3062  11
3063  25
3064  19
3065  20
3066  23
3067  26
3068  26
3069  23
3070  19
3071  26
3072  23
3073  16
3074  28
3075  27
3076  21
3077  21
3078  21
3079  23
3080  20
3081  19
3082  25
3083  21
3084  22
3085  17
3086  26
3087  24
3088  9
3089  27
3090  31
3091  26
3092  23
3093  20
3094  23
3095  27
3096  16
3097  27
3098  11
3099  22
3100  16
3101  19
3102  19
3103  20
3104  15
3105  22
3106  23
3107  28
3108  18
3109  23
3110  14
3111  11
3112  25
3113  23
3114  13
3115  19
3116  26
3117  13
3118  15
3119  19
3120  17
3121  13
3122  24
3123  17
3124  17
3125  15
3126  15
3127  17
3128  19
3129  19
3130  17
3131  18
3132  24
3133  21
3134  16
3135  22
3136  13
3137  26
3138  21
3139  19
3140  16
3141  18
3142  21
3143  22
3144  29
3145  17
3146  17
3147  23
3148  20
3149  30
3150  19
3151  15
3152  23
3153  18
3154  17
3155  18
3156  22
3157  14
3158  16
3159  24
3160  15
3161  20
3162  14
3163  24
3164  23
3165  15
3166  20
3167  23
3168  22
3169  18
3170  23
3171  12
3172  16
3173  12
3174  13
3175  16
3176  14
3177  24
3178  16
3179  27
3180  20
3181  18
3182  25
3183  17
3184  21
3185  18
3186  13
3187  24
3188  21
3189  22
3190  25
3191  16
3192  29
3193  18
3194  25
3195  13
3196  18
3197  16
3198  11
3199  19
3200  15
3201  20
3202  16
3203  17
3204  23
3205  20
3206  16
3207  23
3208  21
3209  11
3210  23
3211  23
3212  14
3213  26
3214  16
3215  15
3216  15
3217  19
3218  14
3219  28
3220  15
3221  24
3222  26
3223  15
3224  20
3225  26
3226  17
3227  18
3228  19
3229  18
3230  15
3231  22
3232  17
3233  22
3234  19
3235  21
3236  21
3237  25
3238  20
3239  23
3240  19
3241  31
3242  18
3243  22
3244  17
3245  14
3246  19
3247  34
3248  23
3249  13
3250  24
3251  19
3252  23
3253  24
3254  14
3255  11
3256  11
3257  17
3258  23
3259  14
3260  24
3261  13
3262  15
3263  18
3264  20
3265  18
3266  18
3267  17
3268  15
3269  14
3270  15
3271  9
3272  21
3273  20
3274  25
3275  15
3276  17
3277  17
3278  22
3279  13
3280  12
3281  27
3282  25
3283  18
3284  21
3285  23
3286  15
3287  22
3288  18
3289  19
3290  17
3291  20
3292  11
3293  24
3294  16
3295  24
3296  30
3297  20
3298  26
3299  14
3300  22
3301  25
3302  30
3303  26
3304  18
3305  18
3306  20
3307  14
3308  20
3309  29
3310  10
3311  18
3312  17
3313  26
3314  27
3315  13
3316  17
3317  17
3318  10
3319  18
3320  21
3321  19
3322  14
3323  18
3324  10
3325  22
3326  28
3327  14
3328  21
3329  21
3330  5
3331  20
3332  19
3333  14
3334  20
3335  18
3336  16
3337  20
3338  17
3339  25
3340  11
3341  20
3342  21
3343  22
3344  20
3345  29
3346  16
3347  19
3348  11
3349  12
3350  14
3351  23
3352  25
3353  25
3354  15
3355  14
3356  13
3357  13
3358  22
3359  34
3360  15
3361  20
3362  20
3363  20
3364  25
3365  21
3366  16
3367  18
3368  14
3369  17
3370  28
3371  17
3372  12
3373  17
3374  20
3375  16
3376  14
3377  24
3378  23
3379  15
3380  19
3381  20
3382  17
3383  23
3384  22
3385  16
3386  22
3387  20
3388  18
3389  20
3390  21
3391  15
3392  13
3393  15
3394  28
3395  16
3396  23
3397  17
3398  15
3399  28
3400  25
3401  24
3402  16
3403  18
3404  23
3405  16
3406  21
3407  21
3408  19
3409  21
3410  9
3411  11
3412  7
3413  2
3414  15
3415  7
3416  12
3417  6
3418  9
3419  7
3420  8
3421  5
3422  3
3423  4
3424  4
3425  2
3426  0
3427  1
3428  0
3429  0
3430  1
3431  0
3432  0
3433  0
3434  0
3435  0
3436  0
3437  0
3438  0
3439  0
3440  0
3441  0
3442  0
3443  0
3444  0
3445  0
3446  0
3447  0
3448  0
3449  0
3450  0
3451  0
3452  0
3453  0
3454  0
3455  0
3456  0
3457  0
3458  0
3459  0
3460  0
3461  0
3462  0
3463  0
3464  0
3465  0
3466  0
3467  0
3468  0
3469  0
3470  0
3471  0
3472  0
3473  0
3474  0
3475  0
3476  0
3477  0
3478  0
3479  0
3480  0
3481  0
3482  0
3483  0
3484  0
3485  0
3486  0
3487  0
3488  0
3489  0
3490  0
3491  0
3492  0
3493  0
3494  0
3495  0
3496  0
3497  0
3498  0
3499  0
3500  0
3501  0
3502  0
3503  0
3504  0
3505  0
3506  0
3507  0
3508  0
3509  0
3510  0
3511  0
3512  0
3513  0
3514  0
3515  0
3516  0
3517  0
3518  0
3519  0
3520  0
3521  0
3522  0
3523  0
3524  0
3525  0
3526  0
3527  0
3528  0
3529  0
3530  1
3531  0
3532  0
3533  0
3534  0
3535  0
3536  0
3537  0
3538  0
3539  0
3540  0
3541  0
3542  0
3543  0
3544  0
3545  0
3546  0
3547  0
3548  0
3549  0
3550  0
3551  0
3552  0
3553  0
3554  0
3555  0
3556  0
3557  0
3558  0
3559  0
3560  0
3561  0
3562  0
3563  0
3564  0
3565  0
3566  0
3567  0
3568  0
3569  0
3570  0
3571  0
3572  0
3573  0
3574  0
3575  0
3576  0
3577  0
3578  0
3579  0
3580  0
3581  0
3582  0
3583  0
3584  0
3585  0
3586  0
3587  0
3588  0
3589  0
3590  0
3591  0
3592  0
3593  0
3594  0
3595  0
3596  0
3597  0
3598  0
3599  0
3600  0
3601  0
3602  0
3603  0
3604  0
3605  0
3606  0
3607  0
3608  0
3609  0
3610  0
3611  0
3612  0
3613  0
3614  0
3615  0
3616  0
3617  0
3618  0
3619  0
3620  0
3621  0
3622  0
3623  0
3624  0
3625  0
3626  0
3627  0
3628  0
3629  0
3630  0
3631  0
3632  0
3633  0
3634  0
3635  0
3636  0
3637  0
3638  0
3639  0
3640  0
3641  0
3642  0
3643  0
3644  0
3645  0
3646  0
3647  0
3648  0
3649  0
3650  0
3651  0
3652  0
3653  0
3654  0
3655  0
3656  0
3657  0
3658  0
3659  0
3660  0
3661  0
3662  0
3663  0
3664  0
3665  0
3666  0
3667  0
3668  0
3669  0
3670  0
3671  0
3672  0
3673  0
3674  0
3675  0
3676  0
3677  0
3678  0
3679  0
3680  0
3681  0
3682  0
3683  0
3684  0
3685  0
3686  0
3687  0
3688  0
3689  0
3690  0
3691  0
3692  0
3693  0
3694  0
3695  0
3696  0
3697  0
3698  0
3699  0
3700  0
3701  0
3702  0
3703  0
3704  0
3705  0
3706  0
3707  0
3708  0
3709  0
3710  0
3711  0
3712  0
3713  0
3714  0
3715  0
3716  0
3717  0
3718  0
3719  0
3720  0
3721  0
3722  0
3723  0
3724  0
3725  0
3726  0
3727  0
3728  0
3729  0
3730  0
3731  0
3732  0
3733  0
3734  0
3735  0
3736  0
3737  0
3738  0
3739  0
3740  0
3741  0
3742  0
3743  0
3744  0
3745  0
3746  0
3747  0
3748  0
3749  0
3750  0
3751  0
3752  0
3753  0
3754  0
3755  0
3756  0
3757  0
3758  0
3759  0
3760  0
3761  0
3762  0
3763  0
3764  0
3765  0
3766  0
3767  0
3768  0
3769  0
3770  0
3771  0
3772  0
3773  0
3774  0
3775  0
3776  0
3777  0
3778  0
3779  0
3780  0
3781  0
3782  0
3783  0
3784  0
3785  0
3786  0
3787  0
3788  0
3789  0
3790  0
3791  0
3792  0
3793  0
3794  0
3795  0
3796  0
3797  0
3798  0
3799  0
3800  0
3801  0
3802  0
3803  0
3804  0
3805  0
3806  0
3807  0
3808  0
3809  0
3810  0
3811  0
3812  0
3813  0
3814  0
3815  0
3816  0
3817  0
3818  0
3819  0
3820  0
3821  0
3822  0
3823  0
3824  0
3825  0
3826  0
3827  0
3828  0
3829  0
3830  0
3831  0
3832  0
3833  0
3834  0
3835  0
3836  0
3837  0
3838  0
3839  0
3840  0
3841  0
3842  0
3843  0
3844  0
3845  0
3846  0
3847  0
3848  0
3849  0
3850  0
3851  0
3852  0
3853  0
3854  0
3855  0
3856  0
3857  0
3858  0
3859  0
3860  0
3861  0
3862  0
3863  0
3864  0
3865  0
3866  0
3867  0
3868  0
3869  0
3870  0
3871  0
3872  0
3873  0
3874  0
3875  0
3876  0
3877  0
3878  0
3879  0
3880  0
3881  0
3882  0
3883  0
3884  0
3885  0
3886  0
3887  0
3888  0
3889  0
3890  0
3891  0
3892  0
3893  0
3894  0
3895  0
3896  0
3897  0
3898  0
3899  0
3900  0
3901  0
3902  0
3903  0
3904  0
3905  0
3906  0
3907  0
3908  0
3909  0
3910  0
3911  0
3912  0
3913  0
3914  0
3915  0
3916  0
3917  0
3918  0
3919  0
3920  0
3921  0
3922  0
3923  0
3924  0
3925  0
3926  0
3927  0
3928  0
3929  0
3930  0
3931  0
3932  0
3933  0
3934  0
3935  0
3936  0
3937  0
3938  0
3939  0
3940  0
3941  0
3942  0
3943  0
3944  0
3945  0
3946  0
3947  0
3948  0
3949  0
3950  0
3951  0
3952  0
3953  0
3954  0
3955  0
3956  0
3957  0
3958  0
3959  0
3960  0
3961  0
3962  0
3963  0
3964  0
3965  0
3966  0
3967  0
3968  0
3969  0
3970  0
3971  0
3972  0
3973  0
3974  0
3975  0
3976  0
3977  0
3978  0
3979  0
3980  0
3981  0
3982  0
3983  0
3984  0
3985  0
3986  0
3987  0
3988  0
3989  0
3990  0
3991  0
3992  0
3993  0
3994  0
3995  0
3996  0
3997  0
3998  0
3999  0
4000  0
4001  0
4002  0
4003  0
4004  0
4005  0
4006  0
4007  0
4008  0
4009  0
4010  0
4011  0
4012  0
4013  0
4014  0
4015  0
4016  0
4017  0
4018  0
4019  0
4020  0
4021  0
4022  0
4023  0
4024  0
4025  0
4026  0
4027  0
4028  0
4029  0
4030  0
4031  0
4032  0
4033  0
4034  0
4035  0
4036  0
4037  0
4038  0
4039  0
4040  0
4041  0
4042  0
4043  0
4044  0
4045  0
4046  0
4047  0
4048  0
4049  0
4050  0
4051  0
4052  0
4053  0
4054  0
4055  0
4056  0
4057  0
4058  0
4059  0
4060  0
4061  0
4062  0
4063  0
4064  0
4065  0
4066  0
4067  0
4068  0
4069  0
4070  0
4071  0
4072  0
4073  0
4074  0
4075  0
4076  0
4077  0
4078  0
4079  0
4080  0
4081  0
4082  0
4083  0
4084  0
4085  0
4086  0
4087  0
4088  0
4089  0
4090  0
4091  0
4092  0
4093  0
4094  0
4095  0
