0  0
1  0
2  0
3  0
4  0
5  0
6  0
7  0
8  0
9  0
10  0
11  0
12  0
13  0
14  1
15  53
16  187
17  222
18  71
19  32
20  16
21  6
22  2
23  4
24  2
25  0
26  3
27  2
28  1
29  4
30  1
31  3
32  3
33  7
34  1
35  4
36  2
37  2
38  1
39  2
40  0
41  1
42  2
43  0
44  1
45  1
46  0
47  0
48  0
49  0
50  0
51  0
52  0
53  0
54  0
55  0
56  0
57  0
58  0
59  0
60  0
61  0
62  0
63  0
64  0
65  0
66  0
67  0
68  0
69  0
70  0
71  0
72  0
73  0
74  0
75  0
76  0
77  0
78  0
79  0
80  0
81  0
82  0
83  0
84  0
85  0
86  0
87  0
88  0
89  0
90  0
91  0
92  0
93  0
94  0
95  0
96  0
97  0
98  0
99  0
100  0
101  0
102  0
103  0
104  0
105  0
106  0
107  0
108  0
109  0
110  0
111  0
112  0
113  0
114  0
115  0
116  0
117  0
118  0
119  0
120  0
121  0
122  0
123  0
124  0
125  0
126  0
127  0
128  0
129  0
130  0
131  0
132  0
133  0
134  0
135  0
136  0
137  0
138  0
139  0
140  0
141  0
142  0
143  0
144  0
145  0
146  0
147  0
148  0
149  0
150  0
151  0
152  0
153  0
154  0
155  0
156  0
157  0
158  0
159  0
160  0
161  0
162  0
163  0
164  0
165  0
166  0
167  0
168  0
169  0
170  0
171  0
172  0
173  0
174  0
175  0
176  0
177  0
178  0
179  0
180  0
181  3
182  29
183  106
184  159
185  203
186  206
187  149
188  84
189  38
190  24
191  20
192  13
193  21
194  15
195  14
196  15
197  14
198  8
199  6
200  11
201  5
202  14
203  6
204  5
205  8
206  14
207  6
208  10
209  11
210  10
211  7
212  9
213  9
214  8
215  9
216  8
217  3
218  10
219  8
220  10
221  11
222  9
223  6
224  9
225  6
226  10
227  10
228  11
229  5
230  4
231  11
232  8
233  10
234  10
235  9
236  4
237  7
238  7
239  9
240  15
241  8
242  10
243  11
244  12
245  7
246  3
247  11
248  12
249  14
250  10
251  8
252  11
253  7
254  12
255  13
256  4
257  8
258  11
259  4
260  10
261  9
262  14
263  7
264  11
265  9
266  8
267  9
268  4
269  12
270  17
271  18
272  16
273  13
274  10
275  10
276  8
277  6
278  10
279  13
280  6
281  9
282  12
283  3
284  8
285  7
286  8
287  11
288  4
289  11
290  14
291  12
292  6
293  10
294  6
295  14
296  8
297  7
298  9
299  13
300  10
301  10
302  9
303  15
304  6
305  11
306  7
307  14
308  8
309  7
310  6
311  6
312  5
313  4
314  8
315  12
316  2
317  6
318  7
319  7
320  5
321  6
322  10
323  9
324  10
325  8
326  9
327  7
328  11
329  12
330  7
331  18
332  6
333  6
334  8
335  9
336  10
337  16
338  7
339  9
340  5
341  8
342  6
343  10
344  7
345  7
346  8
347  5
348  12
349  6
350  4
351  14
352  9
353  9
354  6
355  7
356  4
357  8
358  8
359  8
360  7
361  4
362  7
363  13
364  14
365  14
366  7
367  6
368  9
369  4
370  6
371  11
372  5
373  15
374  7
375  6
376  5
377  11
378  8
379  13
380  11
381  4
382  9
383  5
384  6
385  10
386  9
387  11
388  12
389  11
390  7
391  11
392  9
393  9
394  12
395  11
396  8
397  8
398  4
399  9
400  6
401  11
402  7
403  5
404  7
405  7
406  9
407  9
408  12
409  9
410  12
411  10
412  5
413  9
414  10
415  5
416  10
417  10
418  12
419  10
420  7
421  12
422  8
423  7
424  16
425  5
426  7
427  10
428  10
429  10
430  5
431  7
432  10
433  7
434  4
435  5
436  8
437  12
438  9
439  8
440  13
441  8
442  2
443  9
444  10
445  14
446  7
447  12
448  6
449  8
450  8
451  6
452  6
453  8
454  6
455  9
456  11
457  13
458  6
459  10
460  6
461  9
462  13
463  10
464  6
465  9
466  9
467  8
468  12
469  9
470  6
471  9
472  8
473  12
474  6
475  7
476  6
477  10
478  6
479  7
480  6
481  12
482  8
483  7
484  16
485  8
486  7
487  6
488  11
489  8
490  7
491  5
492  8
493  6
494  8
495  16
496  5
497  15
498  10
499  9
500  7
501  8
502  8
503  2
504  6
505  12
506  7
507  7
508  10
509  10
510  17
511  12
512  8
513  8
514  10
515  4
516  7
517  14
518  11
519  10
520  10
521  10
522  5
523  14
524  16
525  10
526  10
527  17
528  8
529  6
530  8
531  12
532  9
533  11
534  8
535  7
536  10
537  10
538  5
539  8
540  11
541  6
542  15
543  10
544  6
545  9
546  4
547  3
548  14
549  9
550  9
551  13
552  10
553  15
554  7
555  13
556  7
557  7
558  11
559  8
560  8
561  10
562  11
563  10
564  8
565  5
566  13
567  9
568  8
569  12
570  7
571  5
572  12
573  4
574  7
575  5
576  9
577  8
578  8
579  14
580  7
581  5
582  8
583  11
584  4
585  10
586  8
587  7
588  9
589  9
590  12
591  7
592  8
593  9
594  11
595  8
596  6
597  8
598  8
599  7
600  9
601  11
602  7
603  8
604  10
605  6
606  6
607  5
608  8
609  7
610  13
611  5
612  7
613  8
614  6
615  11
616  12
617  8
618  10
619  5
620  13
621  10
622  9
623  9
624  6
625  13
626  10
627  7
628  12
629  8
630  10
631  9
632  6
633  9
634  9
635  9
636  10
637  10
638  4
639  16
640  7
641  3
642  4
643  6
644  7
645  11
646  11
647  10
648  12
649  6
650  7
651  9
652  8
653  5
654  8
655  9
656  5
657  7
658  8
659  6
660  6
661  8
662  9
663  9
664  9
665  7
666  4
667  10
668  10
669  10
670  9
671  9
672  12
673  9
674  7
675  4
676  9
677  9
678  5
679  5
680  6
681  13
682  11
683  9
684  7
685  11
686  16
687  13
688  10
689  5
690  11
691  7
692  9
693  6
694  7
695  9
696  12
697  13
698  3
699  7
700  9
701  7
702  11
703  5
704  7
705  3
706  8
707  4
708  12
709  12
710  6
711  11
712  12
713  14
714  12
715  11
716  14
717  9
718  5
719  11
720  6
721  6
722  12
723  9
724  11
725  10
726  6
727  9
728  6
729  10
730  12
731  10
732  6
733  7
734  12
735  17
736  10
737  8
738  12
739  6
740  18
741  6
742  11
743  6
744  5
745  7
746  9
747  6
748  13
749  6
750  5
751  8
752  13
753  4
754  10
755  9
756  11
757  12
758  11
759  15
760  6
761  11
762  6
763  11
764  12
765  7
766  11
767  8
768  9
769  11
770  13
771  6
772  12
773  10
774  19
775  5
776  8
777  10
778  16
779  17
780  12
781  9
782  9
783  13
784  10
785  8
786  6
787  7
788  10
789  12
790  5
791  7
792  7
793  10
794  14
795  7
796  9
797  9
798  10
799  4
800  7
801  8
802  11
803  8
804  5
805  5
806  6
807  12
808  5
809  3
810  14
811  6
812  9
813  7
814  11
815  6
816  7
817  7
818  11
819  5
820  13
821  8
822  11
823  11
824  10
825  5
826  8
827  5
828  6
829  9
830  8
831  8
832  5
833  11
834  8
835  7
836  9
837  11
838  7
839  16
840  9
841  12
842  14
843  12
844  17
845  6
846  7
847  13
848  14
849  11
850  10
851  11
852  6
853  10
854  10
855  9
856  9
857  10
858  10
859  5
860  8
861  6
862  8
863  7
864  10
865  10
866  8
867  13
868  7
869  7
870  7
871  5
872  3
873  13
874  9
875  15
876  10
877  8
878  3
879  7
880  3
881  16
882  7
883  7
884  6
885  9
886  9
887  4
888  9
889  8
890  8
891  3
892  9
893  7
894  10
895  6
896  6
897  8
898  11
899  8
900  9
901  7
902  7
903  10
904  9
905  4
906  10
907  8
908  9
909  14
910  15
911  6
912  11
913  19
914  5
915  9
916  11
917  12
918  6
919  6
920  12
921  5
922  7
923  7
924  12
925  9
926  8
927  7
928  11
929  7
930  7
931  10
932  7
933  10
934  8
935  2
936  11
937  13
938  14
939  10
940  11
941  11
942  11
943  5
944  8
945  6
946  10
947  20
948  5
949  5
950  3
951  7
952  8
953  7
954  8
955  9
956  7
957  8
958  6
959  11
960  9
961  7
962  7
963  9
964  6
965  10
966  8
967  9
968  14
969  9
970  6
971  13
972  10
973  9
974  11
975  8
976  9
977  10
978  7
979  6
980  8
981  12
982  9
983  11
984  14
985  10
986  6
987  7
988  8
989  11
990  7
991  14
992  11
993  6
994  8
995  7
996  9
997  12
998  14
999  5
1000  10
1001  9
1002  6
1003  10
1004  13
1005  8
1006  6
1007  11
1008  10
1009  11
1010  13
1011  16
1012  9
1013  15
1014  6
1015  9
1016  9
1017  12
1018  13
1019  13
1020  7
1021  3
1022  9
1023  7
1024  11
1025  14
1026  9
1027  7
1028  12
1029  10
1030  6
1031  7
1032  6
1033  8
1034  13
1035  8
1036  12
1037  4
1038  3
1039  11
1040  12
1041  9
1042  6
1043  8
1044  12
1045  5
1046  14
1047  10
1048  7
1049  7
1050  5
1051  10
1052  9
1053  8
1054  11
1055  8
1056  11
1057  8
1058  12
1059  13
1060  4
1061  6
1062  5
1063  9
1064  10
1065  10
1066  6
1067  7
1068  5
1069  17
1070  10
1071  11
1072  7
1073  8
1074  11
1075  10
1076  6
1077  10
1078  11
1079  11
1080  10
1081  9
1082  15
1083  7
1084  9
1085  14
1086  11
1087  7
1088  8
1089  11
1090  8
1091  17
1092  8
1093  10
1094  7
1095  15
1096  11
1097  15
1098  12
1099  9
1100  16
1101  11
1102  8
1103  7
1104  17
1105  13
1106  9
1107  10
1108  13
1109  8
1110  13
1111  8
1112  10
1113  9
1114  13
1115  14
1116  8
1117  10
1118  7
1119  12
1120  14
1121  13
1122  9
1123  13
1124  6
1125  8
1126  12
1127  12
1128  14
1129  12
1130  13
1131  14
1132  12
1133  11
1134  8
1135  12
1136  16
1137  9
1138  8
1139  9
1140  8
1141  11
1142  9
1143  16
1144  13
1145  12
1146  8
1147  10
1148  14
1149  6
1150  11
1151  10
1152  8
1153  15
1154  11
1155  7
1156  7
1157  7
1158  14
1159  12
1160  7
1161  11
1162  14
1163  10
1164  9
1165  13
1166  10
1167  11
1168  16
1169  7
1170  13
1171  12
1172  9
1173  8
1174  14
1175  9
1176  7
1177  7
1178  7
1179  10
1180  15
1181  14
1182  15
1183  10
1184  14
1185  6
1186  7
1187  9
1188  10
1189  7
1190  12
1191  16
1192  12
1193  15
1194  8
1195  12
1196  11
1197  3
1198  11
1199  10
1200  8
1201  12
1202  13
1203  10
1204  10
1205  19
1206  16
1207  12
1208  7
1209  10
1210  13
1211  6
1212  8
1213  13
1214  11
1215  10
1216  11
1217  10
1218  13
1219  12
1220  11
1221  8
1222  8
1223  13
1224  12
1225  11
1226  14
1227  9
1228  11
1229  9
1230  11
1231  16
1232  17
1233  14
1234  18
1235  5
1236  11
1237  8
1238  12
1239  11
1240  10
1241  10
1242  11
1243  7
1244  15
1245  13
1246  7
1247  9
1248  8
1249  10
1250  12
1251  10
1252  11
1253  7
1254  7
1255  6
1256  11
1257  11
1258  16
1259  17
1260  1
1261  14
1262  7
1263  10
1264  9
1265  12
1266  13
1267  10
1268  10
1269  6
1270  10
1271  12
1272  11
1273  11
1274  6
1275  12
1276  8
1277  11
1278  8
1279  14
1280  10
1281  5
1282  6
1283  7
1284  14
1285  9
1286  10
1287  10
1288  11
1289  3
1290  8
1291  10
1292  7
1293  13
1294  8
1295  12
1296  14
1297  6
1298  10
1299  11
1300  14
1301  13
1302  12
1303  8
1304  11
1305  8
1306  5
1307  11
1308  9
1309  11
1310  15
1311  11
1312  9
1313  15
1314  7
1315  14
1316  8
1317  7
1318  10
1319  14
1320  11
1321  9
1322  10
1323  8
1324  18
1325  12
1326  13
1327  12
1328  10
1329  13
1330  4
1331  8
1332  8
1333  10
1334  10
1335  8
1336  11
1337  9
1338  15
1339  4
1340  11
1341  13
1342  6
1343  13
1344  9
1345  12
1346  8
1347  12
1348  9
1349  8
1350  17
1351  9
1352  7
1353  8
1354  9
1355  20
1356  5
1357  8
1358  6
1359  6
1360  14
1361  9
1362  14
1363  8
1364  14
1365  12
1366  7
1367  12
1368  11
1369  10
1370  17
1371  12
1372  17
1373  10
1374  15
1375  14
1376  8
1377  9
1378  13
1379  11
1380  9
1381  13
1382  6
1383  19
1384  11
1385  13
1386  13
1387  5
1388  14
1389  10
1390  19
1391  11
1392  7
1393  13
1394  13
1395  6
1396  10
1397  8
1398  10
1399  14
1400  10
1401  9
1402  13
1403  12
1404  8
1405  13
1406  11
1407  10
1408  12
1409  17
1410  11
1411  11
1412  11
1413  4
1414  9
1415  8
1416  10
1417  11
1418  12
1419  12
1420  13
1421  10
1422  12
1423  11
1424  12
1425  10
1426  10
1427  11
1428  16
1429  12
1430  7
1431  12
1432  9
1433  12
1434  13
1435  6
1436  7
1437  11
1438  10
1439  15
1440  10
1441  15
1442  6
1443  10
1444  17
1445  13
1446  5
1447  12
1448  10
1449  13
1450  6
1451  10
1452  12
1453  10
1454  14
1455  10
1456  9
1457  9
1458  15
1459  6
1460  10
1461  12
1462  10
1463  8
1464  7
1465  13
1466  10
1467  15
1468  10
1469  6
1470  9
1471  11
1472  10
1473  7
1474  3
1475  10
1476  13
1477  13
1478  9
1479  10
1480  12
1481  5
1482  6
1483  14
1484  12
1485  17
1486  11
1487  10
1488  10
1489  8
1490  16
1491  17
1492  7
1493  8
1494  13
1495  16
1496  8
1497  16
1498  24
1499  9
1500  12
1501  11
1502  12
1503  13
1504  14
1505  9
1506  12
1507  9
1508  10
1509  9
1510  12
1511  8
1512  8
1513  11
1514  14
1515  6
1516  10
1517  13
1518  9
1519  15
1520  7
1521  10
1522  17
1523  9
1524  13
1525  13
1526  9
1527  14
1528  15
1529  15
1530  19
1531  21
1532  13
1533  11
1534  14
1535  10
1536  10
1537  15
1538  14
1539  16
1540  9
1541  11
1542  15
1543  15
1544  12
1545  19
1546  11
1547  9
1548  17
1549  9
1550  22
1551  13
1552  11
1553  17
1554  15
1555  17
1556  10
1557  15
1558  10
1559  12
1560  13
1561  15
1562  17
1563  14
1564  15
1565  16
1566  18
1567  13
1568  10
1569  21
1570  18
1571  19
1572  17
1573  16
1574  13
1575  16
1576  14
1577  7
1578  20
1579  10
1580  21
1581  20
1582  16
1583  13
1584  11
1585  26
1586  10
1587  12
1588  11
1589  9
1590  11
1591  18
1592  10
1593  17
1594  15
1595  19
1596  13
1597  13
1598  16
1599  19
1600  21
1601  17
1602  19
1603  20
1604  13
1605  17
1606  12
1607  25
1608  20
1609  13
1610  19
1611  17
1612  19
1613  17
1614  22
1615  16
1616  17
1617  17
1618  23
1619  15
1620  23
1621  21
1622  22
1623  20
1624  29
1625  22
1626  29
1627  29
1628  34
1629  33
1630  38
1631  29
1632  29
1633  16
1634  24
1635  23
1636  15
1637  27
1638  12
1639  28
1640  26
1641  25
1642  21
1643  17
1644  17
1645  17
1646  14
1647  10
1648  15
1649  10
1650  15
1651  17
1652  18
1653  8
1654  7
1655  6
1656  18
1657  9
1658  16
1659  10
1660  12
1661  10
1662  15
1663  4
1664  8
1665  5
1666  12
1667  7
1668  12
1669  9
1670  11
1671  8
1672  9
1673  3
1674  7
1675  7
1676  10
1677  9
1678  9
1679  8
1680  10
1681  11
1682  12
1683  9
1684  16
1685  6
1686  7
1687  6
1688  12
1689  9
1690  8
1691  10
1692  11
1693  8
1694  8
1695  10
1696  6
1697  10
1698  15
1699  3
1700  12
1701  11
1702  14
1703  7
1704  13
1705  9
1706  7
1707  11
1708  6
1709  14
1710  6
1711  8
1712  9
1713  10
1714  15
1715  10
1716  8
1717  13
1718  11
1719  15
1720  15
1721  7
1722  5
1723  8
1724  6
1725  10
1726  7
1727  5
1728  13
1729  7
1730  3
1731  3
1732  15
1733  9
1734  8
1735  9
1736  17
1737  10
1738  6
1739  7
1740  4
1741  10
1742  11
1743  8
1744  9
1745  8
1746  10
1747  9
1748  5
1749  10
1750  5
1751  11
1752  7
1753  13
1754  15
1755  7
1756  10
1757  10
1758  8
1759  7
1760  10
1761  9
1762  9
1763  13
1764  7
1765  13
1766  3
1767  9
1768  6
1769  8
1770  7
1771  15
1772  3
1773  10
1774  11
1775  6
1776  11
1777  6
1778  9
1779  10
1780  14
1781  8
1782  13
1783  12
1784  16
1785  7
1786  11
1787  9
1788  8
1789  14
1790  9
1791  7
1792  12
1793  7
1794  10
1795  12
1796  11
1797  8
1798  10
1799  10
1800  12
1801  12
1802  7
1803  10
1804  8
1805  13
1806  9
1807  9
1808  11
1809  13
1810  19
1811  8
1812  9
1813  8
1814  15
1815  13
1816  13
1817  16
1818  11
1819  13
1820  9
1821  13
1822  11
1823  8
1824  12
1825  13
1826  22
1827  11
1828  23
1829  12
1830  9
1831  12
1832  11
1833  12
1834  12
1835  18
1836  13
1837  12
1838  15
1839  11
1840  23
1841  17
1842  14
1843  12
1844  12
1845  13
1846  20
1847  19
1848  23
1849  17
1850  21
1851  15
1852  19
1853  13
1854  14
1855  19
1856  22
1857  20
1858  21
1859  16
1860  24
1861  15
1862  19
1863  22
1864  20
1865  21
1866  24
1867  29
1868  26
1869  26
1870  29
1871  19
1872  31
1873  22
1874  28
1875  29
1876  28
1877  21
1878  26
1879  31
1880  26
1881  31
1882  24
1883  27
1884  27
1885  28
1886  33
1887  47
1888  32
1889  35
1890  39
1891  31
1892  35
1893  43
1894  46
1895  36
1896  39
1897  28
1898  54
1899  38
1900  38
1901  37
1902  46
1903  33
1904  41
1905  47
1906  49
1907  47
1908  43
1909  44
1910  31
1911  68
1912  43
1913  32
1914  56
1915  62
1916  57
1917  49
1918  44
1919  57
1920  50
1921  39
1922  49
1923  49
1924  39
1925  56
1926  52
1927  53
1928  41
1929  45
1930  58
1931  45
1932  49
1933  62
1934  54
1935  55
1936  43
1937  47
1938  47
1939  41
1940  50
1941  58
1942  46
1943  56
1944  48
1945  58
1946  46
1947  55
1948  59
1949  46
1950  53
1951  60
1952  46
1953  54
1954  56
1955  47
1956  56
1957  49
1958  47
1959  39
1960  42
1961  54
1962  53
1963  44
1964  47
1965  52
1966  44
1967  47
1968  52
1969  54
1970  47
1971  50
1972  42
1973  41
1974  53
1975  37
1976  58
1977  51
1978  46
1979  53
1980  50
1981  43
1982  47
1983  52
1984  46
1985  43
1986  43
1987  54
1988  58
1989  45
1990  64
1991  54
1992  49
1993  47
1994  55
1995  61
1996  56
1997  69
1998  55
1999  51
2000  54
2001  64
2002  72
2003  49
2004  54
2005  59
2006  51
2007  76
2008  55
2009  82
2010  57
2011  79
2012  65
2013  54
2014  57
2015  62
2016  75
2017  55
2018  85
2019  79
2020  81
2021  72
2022  90
2023  79
2024  78
2025  72
2026  86
2027  109
2028  70
2029  93
2030  98
2031  90
2032  95
2033  109
2034  103
2035  110
2036  114
2037  99
2038  92
2039  117
2040  105
2041  112
2042  96
2043  123
2044  112
2045  128
2046  134
2047  131
2048  120
2049  129
2050  139
2051  143
2052  138
2053  120
2054  132
2055  135
2056  120
2057  158
2058  151
2059  145
2060  159
2061  182
2062  172
2063  145
2064  174
2065  187
2066  183
2067  176
2068  168
2069  196
2070  185
2071  158
2072  223
2073  209
2074  192
2075  208
2076  206
2077  218
2078  223
2079  208
2080  233
2081  254
2082  258
2083  250
2084  274
2085  295
2086  281
2087  300
2088  269
2089  315
2090  327
2091  352
2092  360
2093  344
2094  374
2095  410
2096  438
2097  439
2098  511
2099  516
2100  557
2101  574
2102  620
2103  724
2104  751
2105  813
2106  920
2107  953
2108  1096
2109  1148
2110  1263
2111  1360
2112  1408
2113  1597
2114  1559
2115  1636
2116  1659
2117  1730
2118  1812
2119  1775
2120  1850
2121  1887
2122  1820
2123  1816
2124  1716
2125  1711
2126  1624
2127  1568
2128  1443
2129  1387
2130  1345
2131  1192
2132  1076
2133  988
2134  883
2135  696
2136  588
2137  517
2138  450
2139  345
2140  286
2141  207
2142  134
2143  96
2144  71
2145  46
2146  48
2147  30
2148  21
2149  20
2150  16
2151  11
2152  7
2153  10
2154  14
2155  7
2156  12
2157  9
2158  13
2159  9
2160  14
2161  4
2162  9
2163  11
2164  13
2165  7
2166  15
2167  10
2168  5
2169  7
2170  8
2171  10
2172  11
2173  11
2174  13
2175  9
2176  13
2177  16
2178  11
2179  19
2180  11
2181  9
2182  10
2183  12
2184  5
2185  8
2186  11
2187  8
2188  7
2189  9
2190  5
2191  7
2192  7
2193  8
2194  9
2195  7
2196  9
2197  8
2198  10
2199  9
2200  5
2201  13
2202  10
2203  10
2204  9
2205  7
2206  10
2207  7
2208  7
2209  11
2210  3
2211  7
2212  7
2213  7
2214  8
2215  13
2216  10
2217  9
2218  15
2219  7
2220  7
2221  12
2222  12
2223  9
2224  5
2225  8
2226  8
2227  11
2228  9
2229  7
2230  11
2231  10
2232  10
2233  7
2234  11
2235  13
2236  6
2237  11
2238  12
2239  8
2240  10
2241  11
2242  7
2243  8
2244  7
2245  9
2246  5
2247  14
2248  10
2249  8
2250  4
2251  11
2252  9
2253  6
2254  9
2255  7
2256  12
2257  8
2258  8
2259  13
2260  8
2261  11
2262  9
2263  8
2264  8
2265  5
2266  6
2267  9
2268  7
2269  12
2270  6
2271  10
2272  7
2273  12
2274  11
2275  13
2276  14
2277  9
2278  11
2279  4
2280  9
2281  6
2282  10
2283  8
2284  9
2285  15
2286  8
2287  9
2288  8
2289  13
2290  14
2291  10
2292  7
2293  9
2294  21
2295  12
2296  9
2297  8
2298  11
2299  11
2300  2
2301  5
2302  7
2303  7
2304  6
2305  6
2306  10
2307  13
2308  11
2309  14
2310  10
2311  15
2312  5
2313  12
2314  7
2315  9
2316  11
2317  12
2318  10
2319  6
2320  9
2321  15
2322  8
2323  9
2324  10
2325  12
2326  14
2327  5
2328  5
2329  10
2330  5
2331  9
2332  14
2333  7
2334  9
2335  10
2336  9
2337  4
2338  10
2339  6
2340  12
2341  5
2342  7
2343  8
2344  4
2345  9
2346  6
2347  10
2348  11
2349  7
2350  13
2351  9
2352  7
2353  9
2354  12
2355  9
2356  8
2357  7
2358  9
2359  6
2360  7
2361  13
2362  9
2363  7
2364  13
2365  11
2366  8
2367  12
2368  13
2369  2
2370  13
2371  10
2372  11
2373  6
2374  6
2375  9
2376  9
2377  8
2378  11
2379  5
2380  16
2381  12
2382  12
2383  8
2384  11
2385  5
2386  10
2387  7
2388  8
2389  8
2390  10
2391  11
2392  9
2393  6
2394  13
2395  5
2396  7
2397  9
2398  9
2399  10
2400  9
2401  9
2402  16
2403  12
2404  9
2405  8
2406  10
2407  13
2408  11
2409  6
2410  5
2411  11
2412  11
2413  10
2414  5
2415  11
2416  8
2417  7
2418  10
2419  9
2420  9
2421  8
2422  5
2423  10
2424  6
2425  9
2426  11
2427  8
2428  9
2429  6
2430  13
2431  9
2432  9
2433  9
2434  9
2435  8
2436  11
2437  6
2438  10
2439  11
2440  4
2441  9
2442  14
2443  8
2444  12
2445  4
2446  8
2447  6
2448  8
2449  7
2450  6
2451  8
2452  13
2453  10
2454  17
2455  10
2456  7
2457  4
2458  11
2459  11
2460  11
2461  7
2462  10
2463  4
2464  15
2465  12
2466  6
2467  13
2468  9
2469  6
2470  5
2471  6
2472  9
2473  7
2474  9
2475  4
2476  7
2477  7
2478  6
2479  13
2480  6
2481  12
2482  9
2483  10
2484  17
2485  7
2486  10
2487  4
2488  13
2489  7
2490  9
2491  16
2492  8
2493  5
2494  12
2495  4
2496  6
2497  3
2498  7
2499  15
2500  4
2501  8
2502  7
2503  7
2504  7
2505  5
2506  9
2507  1
2508  11
2509  8
2510  9
2511  11
2512  10
2513  6
2514  12
2515  10
2516  10
2517  13
2518  3
2519  11
2520  7
2521  9
2522  9
2523  8
2524  7
2525  9
2526  7
2527  9
2528  10
2529  6
2530  7
2531  12
2532  11
2533  8
2534  10
2535  13
2536  8
2537  9
2538  8
2539  7
2540  15
2541  9
2542  20
2543  7
2544  16
2545  7
2546  8
2547  11
2548  5
2549  11
2550  12
2551  4
2552  5
2553  12
2554  7
2555  4
2556  10
2557  6
2558  6
2559  5
2560  11
2561  12
2562  4
2563  14
2564  6
2565  6
2566  9
2567  14
2568  9
2569  15
2570  7
2571  5
2572  7
2573  9
2574  10
2575  10
2576  9
2577  5
2578  8
2579  4
2580  6
2581  14
2582  8
2583  7
2584  8
2585  9
2586  4
2587  14
2588  6
2589  8
2590  7
2591  9
2592  7
2593  7
2594  9
2595  8
2596  6
2597  10
2598  10
2599  11
2600  8
2601  10
2602  8
2603  11
2604  12
2605  13
2606  11
2607  3
2608  10
2609  8
2610  7
2611  12
2612  8
2613  9
2614  5
2615  9
2616  7
2617  7
2618  6
2619  6
2620  5
2621  9
2622  6
2623  6
2624  8
2625  3
2626  7
2627  6
2628  6
2629  11
2630  11
2631  10
2632  8
2633  8
2634  8
2635  6
2636  11
2637  8
2638  5
2639  11
2640  8
2641  8
2642  15
2643  11
2644  6
2645  6
2646  11
2647  9
2648  8
2649  10
2650  10
2651  9
2652  6
2653  5
2654  10
2655  9
2656  7
2657  10
2658  9
2659  8
2660  8
2661  12
2662  18
2663  12
2664  6
2665  9
2666  11
2667  11
2668  11
2669  7
2670  5
2671  10
2672  10
2673  7
2674  12
2675  7
2676  5
2677  14
2678  8
2679  12
2680  8
2681  5
2682  5
2683  9
2684  10
2685  15
2686  11
2687  9
2688  8
2689  5
2690  4
2691  14
2692  3
2693  12
2694  6
2695  8
2696  10
2697  7
2698  12
2699  8
2700  13
2701  4
2702  12
2703  10
2704  12
2705  11
2706  8
2707  13
2708  6
2709  8
2710  9
2711  5
2712  12
2713  14
2714  7
2715  7
2716  7
2717  14
2718  9
2719  9
2720  11
2721  10
2722  9
2723  12
2724  11
2725  12
2726  8
2727  11
2728  14
2729  12
2730  7
2731  8
2732  7
2733  4
2734  12
2735  3
2736  3
2737  15
2738  9
2739  6
2740  5
2741  9
2742  7
2743  6
2744  17
2745  9
2746  12
2747  11
2748  11
2749  11
2750  8
2751  8
2752  4
2753  13
2754  9
2755  5
2756  7
2757  4
2758  7
2759  8
2760  13
2761  9
2762  7
2763  6
2764  4
2765  8
2766  11
2767  6
2768  10
2769  10
2770  10
2771  8
2772  5
2773  7
2774  12
2775  10
2776  9
2777  5
2778  11
2779  9
2780  15
2781  14
2782  10
2783  11
2784  12
2785  7
2786  9
2787  6
2788  12
2789  8
2790  17
2791  6
2792  10
2793  8
2794  11
2795  8
2796  12
2797  6
2798  9
2799  9
2800  5
2801  7
2802  11
2803  6
2804  15
2805  9
2806  7
2807  11
2808  14
2809  9
2810  8
2811  9
2812  5
2813  13
2814  4
2815  14
2816  13
2817  7
2818  10
2819  13
2820  8
2821  7
2822  11
2823  14
2824  9
2825  14
2826  16
2827  8
2828  11
2829  9
2830  6
2831  4
2832  5
2833  13
2834  8
2835  12
2836  7
2837  9
2838  13
2839  5
2840  16
2841  10
2842  11
2843  4
2844  4
2845  6
2846  13
2847  8
2848  12
2849  8
2850  11
2851  6
2852  6
2853  8
2854  10
2855  11
2856  9
2857  7
2858  8
2859  4
2860  7
2861  10
2862  11
2863  13
2864  14
2865  11
2866  8
2867  12
2868  6
2869  10
2870  6
2871  5
2872  8
2873  12
2874  14
2875  7
2876  15
2877  10
2878  7
2879  8
2880  11
2881  10
2882  9
2883  13
2884  3
2885  10
2886  11
2887  13
2888  11
2889  9
2890  13
2891  10
2892  11
2893  12
2894  6
2895  8
2896  11
2897  15
2898  12
2899  10
2900  11
2901  12
2902  8
2903  16
2904  10
2905  12
2906  3
2907  10
2908  20
2909  8
2910  11
2911  14
2912  10
2913  12
2914  6
2915  11
2916  8
2917  12
2918  13
2919  14
2920  9
2921  15
2922  16
2923  7
2924  8
2925  10
2926  17
2927  14
2928  12
2929  11
2930  9
2931  7
2932  15
2933  12
2934  9
2935  15
2936  17
2937  11
2938  19
2939  17
2940  14
2941  18
2942  17
2943  21
2944  14
2945  10
2946  5
2947  13
2948  18
2949  10
2950  17
2951  15
2952  11
2953  16
2954  26
2955  12
2956  27
2957  18
2958  25
2959  41
2960  41
2961  43
2962  43
2963  54
2964  68
2965  67
2966  90
2967  83
2968  92
2969  79
2970  80
2971  74
2972  73
2973  61
2974  74
2975  70
2976  63
2977  58
2978  46
2979  58
2980  39
2981  45
2982  39
2983  28
2984  30
2985  16
2986  15
2987  16
2988  17
2989  8
2990  4
2991  10
2992  7
2993  7
2994  8
2995  9
2996  4
2997  8
2998  10
2999  7
3000  11
3001  9
3002  11
3003  14
3004  12
3005  5
3006  8
3007  7
3008  10
3009  10
3010  8
3011  8
3012  8
3013  13
3014  8
3015  5
3016  8
3017  6
3018  16
3019  17
3020  8
3021  6
3022  10
3023  6
3024  10
3025  14
3026  8
3027  7
3028  15
3029  10
3030  9
3031  8
3032  6
3033  8
3034  9
3035  11
3036  15
3037  11
3038  10
3039  12
3040  9
3041  7
3042  9
3043  8
3044  11
3045  7
3046  4
3047  14
3048  10
3049  11
3050  7
3051  6
3052  7
3053  6
3054  9
3055  9
3056  8
3057  9
3058  7
3059  12
3060  11
3061  8
3062  8
3063  10
3064  6
3065  10
3066  5
3067  6
3068  11
3069  5
3070  10
3071  7
3072  9
3073  9
3074  5
3075  7
3076  8
3077  16
3078  6
3079  5
3080  11
3081  6
3082  7
3083  8
3084  9
3085  14
3086  8
3087  8
3088  6
3089  7
3090  6
3091  5
3092  13
3093  6
3094  10
3095  3
3096  8
3097  7
3098  6
3099  10
3100  4
3101  11
3102  6
3103  18
3104  8
3105  4
3106  5
3107  10
3108  9
3109  8
3110  4
3111  12
3112  12
3113  4
3114  1
3115  9
3116  14
3117  8
3118  5
3119  12
3120  12
3121  12
3122  9
3123  10
3124  13
3125  5
3126  11
3127  10
3128  9
3129  5
3130  7
3131  13
3132  4
3133  8
3134  11
3135  11
3136  10
3137  8
3138  11
3139  8
3140  6
3141  10
3142  6
3143  15
3144  9
3145  13
3146  6
3147  14
3148  9
3149  9
3150  8
3151  10
3152  8
3153  10
3154  9
3155  7
3156  8
3157  7
3158  8
3159  7
3160  11
3161  11
3162  6
3163  7
3164  14
3165  8
3166  8
3167  10
3168  14
3169  5
3170  8
3171  14
3172  9
3173  5
3174  7
3175  7
3176  8
3177  6
3178  13
3179  13
3180  6
3181  16
3182  11
3183  7
3184  11
3185  9
3186  5
3187  11
3188  7
3189  12
3190  9
3191  8
3192  12
3193  8
3194  5
3195  8
3196  6
3197  11
3198  12
3199  2
3200  6
3201  9
3202  10
3203  8
3204  11
3205  6
3206  8
3207  13
3208  12
3209  7
3210  7
3211  6
3212  7
3213  5
3214  9
3215  8
3216  4
3217  12
3218  7
3219  13
3220  12
3221  9
3222  6
3223  14
3224  4
3225  7
3226  10
3227  11
3228  14
3229  10
3230  9
3231  7
3232  4
3233  11
3234  9
3235  7
3236  5
3237  12
3238  11
3239  8
3240  7
3241  11
3242  5
3243  3
3244  18
3245  4
3246  7
3247  10
3248  15
3249  9
3250  9
3251  5
3252  7
3253  10
3254  6
3255  11
3256  4
3257  12
3258  8
3259  11
3260  6
3261  11
3262  11
3263  6
3264  8
3265  12
3266  8
3267  15
3268  6
3269  5
3270  7
3271  10
3272  9
3273  7
3274  14
3275  5
3276  8
3277  3
3278  5
3279  8
3280  6
3281  5
3282  11
3283  5
3284  8
3285  10
3286  10
3287  6
3288  12
3289  14
3290  11
3291  9
3292  7
3293  2
3294  14
3295  9
3296  11
3297  3
3298  10
3299  8
3300  7
3301  11
3302  8
3303  7
3304  11
3305  9
3306  8
3307  7
3308  4
3309  6
3310  12
3311  9
3312  9
3313  9
3314  5
3315  8
3316  12
3317  11
3318  6
3319  9
3320  9
3321  5
3322  6
3323  4
3324  7
3325  5
3326  12
3327  4
3328  11
3329  10
3330  12
3331  5
3332  7
3333  12
3334  6
3335  6
3336  12
3337  9
3338  12
3339  10
3340  7
3341  7
3342  8
3343  11
3344  11
3345  9
3346  8
3347  18
3348  5
3349  10
3350  5
3351  9
3352  13
3353  7
3354  5
3355  8
3356  9
3357  11
3358  4
3359  10
3360  9
3361  8
3362  9
3363  9
3364  10
3365  12
3366  11
3367  5
3368  10
3369  8
3370  3
3371  10
3372  7
3373  6
3374  9
3375  10
3376  14
3377  9
3378  7
3379  7
3380  6
3381  7
3382  10
3383  8
3384  7
3385  9
3386  8
3387  8
3388  6
3389  11
3390  15
3391  9
3392  12
3393  7
3394  3
3395  9
3396  11
3397  9
3398  12
3399  9
3400  8
3401  13
3402  9
3403  10
3404  11
3405  13
3406  5
3407  4
3408  9
3409  5
3410  7
3411  9
3412  4
3413  8
3414  4
3415  4
3416  2
3417  5
3418  4
3419  7
3420  5
3421  5
3422  1
3423  2
3424  6
3425  1
3426  1
3427  1
3428  0
3429  0
3430  0
3431  0
3432  0
3433  0
3434  0
3435  0
3436  0
3437  0
3438  0
3439  0
3440  0
3441  0
3442  0
3443  0
3444  0
3445  0
3446  0
3447  0
3448  0
3449  0
3450  0
3451  0
3452  0
3453  0
3454  0
3455  0
3456  0
3457  0
3458  0
3459  0
3460  0
3461  0
3462  0
3463  0
3464  0
3465  0
3466  0
3467  0
3468  0
3469  0
3470  0
3471  0
3472  0
3473  0
3474  0
3475  0
3476  0
3477  0
3478  0
3479  0
3480  0
3481  0
3482  0
3483  0
3484  0
3485  0
3486  0
3487  0
3488  0
3489  0
3490  0
3491  0
3492  0
3493  0
3494  0
3495  0
3496  0
3497  0
3498  0
3499  0
3500  0
3501  0
3502  0
3503  0
3504  1
3505  0
3506  0
3507  0
3508  0
3509  0
3510  0
3511  0
3512  0
3513  0
3514  0
3515  0
3516  0
3517  0
3518  0
3519  0
3520  0
3521  0
3522  0
3523  0
3524  0
3525  0
3526  0
3527  0
3528  0
3529  0
3530  0
3531  0
3532  0
3533  0
3534  0
3535  0
3536  0
3537  0
3538  0
3539  0
3540  0
3541  0
3542  0
3543  0
3544  0
3545  0
3546  0
3547  0
3548  0
3549  0
3550  0
3551  0
3552  0
3553  0
3554  0
3555  0
3556  0
3557  0
3558  0
3559  0
3560  0
3561  0
3562  0
3563  0
3564  0
3565  0
3566  0
3567  0
3568  0
3569  0
3570  0
3571  0
3572  0
3573  0
3574  0
3575  0
3576  0
3577  0
3578  0
3579  0
3580  0
3581  0
3582  0
3583  0
3584  0
3585  0
3586  0
3587  0
3588  0
3589  0
3590  0
3591  0
3592  0
3593  0
3594  0
3595  0
3596  0
3597  0
3598  0
3599  0
3600  0
3601  0
3602  0
3603  0
3604  0
3605  0
3606  0
3607  0
3608  0
3609  0
3610  0
3611  0
3612  0
3613  0
3614  0
3615  0
3616  0
3617  0
3618  0
3619  0
3620  0
3621  0
3622  0
3623  0
3624  0
3625  0
3626  0
3627  0
3628  0
3629  0
3630  0
3631  0
3632  0
3633  0
3634  0
3635  0
3636  0
3637  0
3638  0
3639  0
3640  0
3641  0
3642  0
3643  0
3644  0
3645  0
3646  0
3647  0
3648  0
3649  0
3650  0
3651  0
3652  0
3653  0
3654  0
3655  0
3656  0
3657  0
3658  0
3659  0
3660  0
3661  0
3662  0
3663  0
3664  0
3665  0
3666  0
3667  0
3668  0
3669  0
3670  0
3671  0
3672  0
3673  0
3674  0
3675  0
3676  0
3677  0
3678  0
3679  0
3680  0
3681  0
3682  0
3683  0
3684  0
3685  0
3686  0
3687  0
3688  0
3689  0
3690  0
3691  0
3692  0
3693  0
3694  0
3695  0
3696  0
3697  0
3698  0
3699  0
3700  0
3701  0
3702  0
3703  0
3704  0
3705  0
3706  0
3707  0
3708  0
3709  0
3710  0
3711  0
3712  0
3713  0
3714  0
3715  0
3716  0
3717  0
3718  0
3719  0
3720  0
3721  0
3722  0
3723  0
3724  0
3725  0
3726  0
3727  0
3728  0
3729  0
3730  0
3731  0
3732  0
3733  0
3734  0
3735  0
3736  0
3737  0
3738  0
3739  0
3740  0
3741  0
3742  0
3743  0
3744  0
3745  0
3746  0
3747  0
3748  0
3749  0
3750  0
3751  0
3752  0
3753  0
3754  0
3755  0
3756  0
3757  0
3758  0
3759  0
3760  0
3761  0
3762  0
3763  0
3764  0
3765  0
3766  0
3767  0
3768  0
3769  0
3770  0
3771  0
3772  0
3773  0
3774  0
3775  0
3776  0
3777  0
3778  0
3779  0
3780  0
3781  0
3782  0
3783  0
3784  0
3785  0
3786  0
3787  0
3788  0
3789  0
3790  0
3791  0
3792  0
3793  0
3794  0
3795  0
3796  0
3797  0
3798  0
3799  0
3800  0
3801  0
3802  0
3803  0
3804  0
3805  0
3806  0
3807  0
3808  0
3809  0
3810  0
3811  0
3812  0
3813  0
3814  0
3815  0
3816  0
3817  0
3818  0
3819  0
3820  0
3821  0
3822  0
3823  0
3824  0
3825  0
3826  0
3827  0
3828  0
3829  0
3830  0
3831  0
3832  0
3833  0
3834  0
3835  0
3836  0
3837  0
3838  0
3839  0
3840  0
3841  0
3842  0
3843  0
3844  0
3845  0
3846  0
3847  0
3848  0
3849  0
3850  0
3851  0
3852  0
3853  0
3854  0
3855  0
3856  0
3857  0
3858  0
3859  0
3860  0
3861  0
3862  0
3863  0
3864  0
3865  0
3866  0
3867  0
3868  0
3869  0
3870  0
3871  0
3872  0
3873  0
3874  0
3875  0
3876  0
3877  0
3878  0
3879  0
3880  0
3881  0
3882  0
3883  0
3884  0
3885  0
3886  0
3887  0
3888  0
3889  0
3890  0
3891  0
3892  0
3893  0
3894  0
3895  0
3896  0
3897  0
3898  0
3899  0
3900  0
3901  0
3902  0
3903  0
3904  0
3905  0
3906  0
3907  0
3908  0
3909  0
3910  0
3911  0
3912  0
3913  0
3914  0
3915  0
3916  0
3917  0
3918  0
3919  0
3920  0
3921  0
3922  0
3923  0
3924  0
3925  0
3926  0
3927  0
3928  0
3929  0
3930  0
3931  0
3932  0
3933  0
3934  0
3935  0
3936  0
3937  0
3938  0
3939  0
3940  0
3941  0
3942  0
3943  0
3944  0
3945  0
3946  0
3947  0
3948  0
3949  0
3950  0
3951  0
3952  0
3953  0
3954  0
3955  0
3956  0
3957  0
3958  0
3959  0
3960  0
3961  0
3962  0
3963  0
3964  0
3965  0
3966  0
3967  0
3968  0
3969  0
3970  0
3971  0
3972  0
3973  0
3974  0
3975  0
3976  0
3977  0
3978  0
3979  0
3980  0
3981  0
3982  0
3983  0
3984  0
3985  0
3986  0
3987  0
3988  0
3989  0
3990  0
3991  0
3992  0
3993  0
3994  0
3995  0
3996  0
3997  0
3998  0
3999  0
4000  0
4001  0
4002  0
4003  0
4004  0
4005  0
4006  0
4007  0
4008  0
4009  0
4010  0
4011  0
4012  0
4013  0
4014  0
4015  0
4016  0
4017  0
4018  0
4019  0
4020  0
4021  0
4022  0
4023  0
4024  0
4025  0
4026  0
4027  0
4028  0
4029  0
4030  0
4031  0
4032  0
4033  0
4034  0
4035  0
4036  0
4037  0
4038  0
4039  0
4040  0
4041  0
4042  0
4043  0
4044  0
4045  0
4046  0
4047  0
4048  0
4049  0
4050  0
4051  0
4052  0
4053  0
4054  0
4055  0
4056  0
4057  0
4058  0
4059  0
4060  0
4061  0
4062  0
4063  0
4064  0
4065  0
4066  0
4067  0
4068  0
4069  0
4070  0
4071  0
4072  0
4073  0
4074  0
4075  0
4076  0
4077  0
4078  0
4079  0
4080  0
4081  0
4082  0
4083  0
4084  0
4085  0
4086  0
4087  0
4088  0
4089  0
4090  0
4091  0
4092  0
4093  0
4094  0
4095  0
