0  0
1  0
2  0
3  0
4  0
5  0
6  0
7  0
8  0
9  0
10  0
11  0
12  0
13  0
14  0
15  0
16  0
17  0
18  0
19  0
20  0
21  0
22  0
23  0
24  0
25  0
26  0
27  0
28  0
29  0
30  0
31  0
32  0
33  0
34  0
35  0
36  0
37  0
38  0
39  0
40  0
41  0
42  0
43  0
44  0
45  0
46  0
47  0
48  0
49  0
50  0
51  0
52  0
53  0
54  0
55  0
56  0
57  0
58  0
59  0
60  0
61  0
62  0
63  0
64  0
65  0
66  0
67  0
68  0
69  0
70  0
71  0
72  0
73  0
74  0
75  0
76  0
77  0
78  0
79  0
80  0
81  0
82  0
83  0
84  0
85  0
86  0
87  0
88  0
89  0
90  0
91  0
92  0
93  0
94  0
95  0
96  0
97  0
98  0
99  0
100  0
101  0
102  0
103  0
104  0
105  0
106  0
107  0
108  0
109  0
110  0
111  0
112  0
113  0
114  0
115  0
116  0
117  0
118  0
119  0
120  0
121  0
122  0
123  0
124  0
125  0
126  0
127  0
128  0
129  0
130  0
131  0
132  0
133  0
134  0
135  0
136  0
137  0
138  0
139  0
140  0
141  0
142  0
143  0
144  0
145  0
146  0
147  0
148  0
149  0
150  0
151  0
152  0
153  0
154  0
155  0
156  0
157  0
158  0
159  0
160  0
161  0
162  0
163  0
164  0
165  0
166  0
167  0
168  0
169  0
170  0
171  0
172  0
173  0
174  0
175  0
176  0
177  0
178  0
179  0
180  0
181  0
182  0
183  0
184  0
185  0
186  0
187  0
188  0
189  0
190  0
191  0
192  0
193  0
194  0
195  0
196  0
197  0
198  0
199  0
200  0
201  0
202  0
203  0
204  0
205  0
206  0
207  0
208  0
209  0
210  0
211  0
212  0
213  0
214  0
215  0
216  0
217  0
218  0
219  0
220  0
221  0
222  0
223  0
224  0
225  0
226  0
227  0
228  0
229  0
230  0
231  0
232  0
233  0
234  0
235  0
236  0
237  0
238  0
239  0
240  0
241  0
242  0
243  0
244  0
245  0
246  0
247  0
248  0
249  0
250  0
251  0
252  0
253  0
254  0
255  0
256  0
257  0
258  0
259  0
260  0
261  0
262  0
263  0
264  0
265  0
266  0
267  0
268  0
269  0
270  0
271  0
272  0
273  0
274  0
275  0
276  0
277  0
278  0
279  0
280  0
281  0
282  0
283  0
284  0
285  0
286  0
287  0
288  0
289  0
290  0
291  0
292  0
293  0
294  0
295  0
296  0
297  0
298  0
299  0
300  0
301  0
302  0
303  0
304  0
305  0
306  0
307  0
308  0
309  0
310  0
311  0
312  0
313  0
314  0
315  0
316  0
317  0
318  0
319  0
320  0
321  0
322  0
323  0
324  0
325  0
326  0
327  0
328  0
329  0
330  0
331  0
332  0
333  0
334  0
335  0
336  0
337  0
338  0
339  0
340  0
341  0
342  0
343  0
344  0
345  0
346  0
347  0
348  0
349  0
350  0
351  0
352  0
353  0
354  0
355  0
356  0
357  0
358  0
359  0
360  0
361  0
362  0
363  0
364  0
365  0
366  0
367  0
368  0
369  0
370  0
371  0
372  0
373  0
374  0
375  0
376  0
377  0
378  0
379  0
380  0
381  0
382  0
383  0
384  0
385  0
386  0
387  0
388  0
389  0
390  0
391  0
392  0
393  0
394  0
395  0
396  0
397  0
398  0
399  0
400  0
401  0
402  0
403  0
404  0
405  0
406  0
407  0
408  0
409  0
410  0
411  0
412  0
413  0
414  0
415  0
416  0
417  0
418  0
419  0
420  0
421  0
422  0
423  0
424  0
425  0
426  0
427  0
428  0
429  0
430  0
431  0
432  0
433  0
434  0
435  0
436  0
437  0
438  0
439  0
440  0
441  0
442  0
443  0
444  0
445  0
446  0
447  0
448  0
449  0
450  0
451  0
452  0
453  0
454  0
455  0
456  0
457  0
458  0
459  0
460  0
461  0
462  0
463  0
464  0
465  0
466  0
467  0
468  0
469  0
470  0
471  0
472  0
473  0
474  0
475  0
476  0
477  0
478  0
479  0
480  0
481  0
482  0
483  0
484  0
485  0
486  0
487  0
488  0
489  0
490  0
491  0
492  0
493  0
494  0
495  0
496  0
497  0
498  0
499  0
500  0
501  0
502  0
503  0
504  0
505  0
506  0
507  0
508  0
509  0
510  0
511  0
512  0
513  0
514  0
515  0
516  0
517  0
518  0
519  0
520  0
521  0
522  0
523  0
524  0
525  0
526  0
527  0
528  0
529  0
530  0
531  0
532  0
533  0
534  0
535  0
536  0
537  0
538  0
539  0
540  0
541  0
542  0
543  0
544  0
545  0
546  0
547  0
548  0
549  0
550  0
551  0
552  0
553  0
554  0
555  0
556  0
557  0
558  0
559  0
560  0
561  0
562  0
563  0
564  0
565  0
566  0
567  0
568  0
569  0
570  0
571  0
572  0
573  0
574  0
575  0
576  0
577  0
578  0
579  0
580  0
581  0
582  0
583  0
584  0
585  0
586  0
587  0
588  0
589  0
590  0
591  0
592  0
593  0
594  0
595  0
596  0
597  0
598  0
599  0
600  0
601  0
602  0
603  0
604  0
605  0
606  0
607  0
608  0
609  0
610  0
611  0
612  0
613  0
614  0
615  0
616  0
617  0
618  0
619  0
620  0
621  0
622  0
623  0
624  0
625  0
626  0
627  0
628  0
629  0
630  0
631  0
632  0
633  0
634  0
635  0
636  0
637  0
638  0
639  0
640  0
641  0
642  0
643  0
644  0
645  0
646  0
647  0
648  0
649  0
650  0
651  0
652  0
653  0
654  0
655  0
656  0
657  0
658  0
659  0
660  0
661  0
662  0
663  0
664  0
665  0
666  0
667  0
668  0
669  0
670  0
671  0
672  0
673  0
674  0
675  0
676  0
677  0
678  0
679  0
680  0
681  0
682  0
683  0
684  0
685  0
686  0
687  0
688  0
689  0
690  0
691  0
692  0
693  0
694  0
695  0
696  0
697  0
698  0
699  0
700  0
701  0
702  0
703  0
704  0
705  0
706  0
707  0
708  0
709  0
710  0
711  0
712  0
713  0
714  0
715  0
716  0
717  0
718  0
719  0
720  0
721  0
722  0
723  0
724  0
725  0
726  0
727  0
728  0
729  0
730  0
731  0
732  0
733  0
734  0
735  0
736  0
737  0
738  0
739  0
740  0
741  0
742  0
743  0
744  0
745  0
746  0
747  0
748  0
749  0
750  0
751  0
752  0
753  0
754  0
755  0
756  0
757  0
758  0
759  0
760  0
761  0
762  0
763  0
764  0
765  0
766  0
767  0
768  0
769  0
770  0
771  0
772  0
773  0
774  0
775  0
776  0
777  0
778  0
779  0
780  0
781  0
782  0
783  0
784  0
785  0
786  0
787  0
788  0
789  0
790  0
791  0
792  0
793  0
794  0
795  0
796  0
797  0
798  0
799  0
800  0
801  0
802  0
803  0
804  0
805  0
806  0
807  0
808  0
809  0
810  0
811  0
812  0
813  0
814  0
815  0
816  0
817  0
818  0
819  0
820  0
821  0
822  0
823  0
824  0
825  0
826  0
827  0
828  0
829  0
830  0
831  0
832  0
833  0
834  0
835  0
836  0
837  0
838  0
839  0
840  0
841  0
842  0
843  0
844  0
845  0
846  0
847  0
848  0
849  0
850  0
851  0
852  0
853  0
854  0
855  0
856  0
857  0
858  0
859  0
860  0
861  0
862  0
863  0
864  0
865  0
866  0
867  0
868  0
869  0
870  0
871  0
872  0
873  0
874  0
875  0
876  0
877  0
878  0
879  0
880  0
881  0
882  0
883  0
884  0
885  0
886  0
887  0
888  0
889  0
890  0
891  0
892  0
893  0
894  0
895  0
896  0
897  0
898  0
899  0
900  0
901  0
902  0
903  0
904  0
905  0
906  0
907  0
908  0
909  0
910  0
911  0
912  0
913  0
914  0
915  0
916  0
917  0
918  0
919  0
920  0
921  0
922  0
923  0
924  0
925  0
926  0
927  0
928  0
929  0
930  0
931  0
932  0
933  0
934  0
935  0
936  0
937  0
938  0
939  0
940  0
941  0
942  0
943  0
944  0
945  0
946  0
947  0
948  0
949  0
950  0
951  0
952  0
953  0
954  0
955  0
956  0
957  0
958  0
959  0
960  0
961  0
962  0
963  0
964  0
965  0
966  0
967  0
968  0
969  0
970  0
971  0
972  0
973  0
974  0
975  0
976  0
977  0
978  0
979  0
980  0
981  0
982  0
983  0
984  0
985  0
986  0
987  0
988  0
989  0
990  0
991  0
992  0
993  0
994  0
995  0
996  0
997  0
998  0
999  0
1000  0
1001  0
1002  0
1003  0
1004  0
1005  0
1006  0
1007  0
1008  0
1009  0
1010  0
1011  0
1012  0
1013  0
1014  0
1015  0
1016  0
1017  0
1018  0
1019  0
1020  0
1021  0
1022  0
1023  0
1024  0
1025  0
1026  0
1027  0
1028  0
1029  0
1030  0
1031  0
1032  0
1033  0
1034  0
1035  0
1036  0
1037  0
1038  0
1039  0
1040  0
1041  0
1042  0
1043  0
1044  0
1045  0
1046  0
1047  0
1048  0
1049  0
1050  0
1051  0
1052  0
1053  0
1054  0
1055  0
1056  0
1057  0
1058  0
1059  0
1060  0
1061  0
1062  0
1063  0
1064  0
1065  0
1066  0
1067  0
1068  0
1069  0
1070  0
1071  0
1072  0
1073  0
1074  0
1075  0
1076  0
1077  0
1078  0
1079  0
1080  0
1081  0
1082  0
1083  0
1084  0
1085  0
1086  0
1087  0
1088  0
1089  0
1090  0
1091  0
1092  0
1093  0
1094  0
1095  0
1096  0
1097  0
1098  0
1099  0
1100  0
1101  0
1102  0
1103  0
1104  0
1105  0
1106  0
1107  0
1108  0
1109  0
1110  0
1111  0
1112  0
1113  0
1114  0
1115  0
1116  0
1117  0
1118  0
1119  0
1120  0
1121  0
1122  0
1123  0
1124  0
1125  0
1126  0
1127  0
1128  0
1129  0
1130  0
1131  0
1132  0
1133  0
1134  0
1135  0
1136  0
1137  0
1138  0
1139  0
1140  0
1141  0
1142  0
1143  0
1144  0
1145  0
1146  0
1147  0
1148  0
1149  0
1150  0
1151  0
1152  0
1153  0
1154  0
1155  0
1156  0
1157  0
1158  0
1159  0
1160  0
1161  0
1162  0
1163  0
1164  0
1165  0
1166  0
1167  0
1168  0
1169  0
1170  0
1171  0
1172  0
1173  0
1174  0
1175  0
1176  0
1177  0
1178  0
1179  0
1180  0
1181  0
1182  0
1183  0
1184  0
1185  0
1186  0
1187  0
1188  0
1189  0
1190  0
1191  0
1192  0
1193  0
1194  0
1195  0
1196  0
1197  0
1198  0
1199  0
1200  0
1201  0
1202  0
1203  0
1204  0
1205  0
1206  0
1207  0
1208  0
1209  0
1210  0
1211  0
1212  0
1213  0
1214  0
1215  0
1216  0
1217  0
1218  0
1219  0
1220  0
1221  0
1222  0
1223  0
1224  0
1225  0
1226  0
1227  0
1228  0
1229  0
1230  0
1231  0
1232  0
1233  0
1234  0
1235  0
1236  0
1237  0
1238  0
1239  0
1240  0
1241  0
1242  0
1243  0
1244  0
1245  0
1246  0
1247  0
1248  0
1249  0
1250  0
1251  0
1252  0
1253  0
1254  0
1255  0
1256  0
1257  0
1258  0
1259  0
1260  0
1261  0
1262  0
1263  0
1264  0
1265  0
1266  0
1267  0
1268  0
1269  0
1270  0
1271  0
1272  0
1273  0
1274  0
1275  0
1276  0
1277  0
1278  0
1279  0
1280  0
1281  0
1282  0
1283  0
1284  0
1285  0
1286  0
1287  0
1288  0
1289  0
1290  0
1291  0
1292  0
1293  0
1294  0
1295  0
1296  0
1297  0
1298  0
1299  0
1300  0
1301  0
1302  0
1303  0
1304  0
1305  0
1306  0
1307  0
1308  0
1309  0
1310  0
1311  0
1312  0
1313  0
1314  0
1315  0
1316  0
1317  0
1318  0
1319  0
1320  0
1321  0
1322  0
1323  0
1324  0
1325  0
1326  0
1327  0
1328  0
1329  0
1330  0
1331  0
1332  0
1333  0
1334  0
1335  0
1336  0
1337  0
1338  0
1339  0
1340  0
1341  0
1342  0
1343  0
1344  0
1345  0
1346  0
1347  0
1348  0
1349  0
1350  0
1351  0
1352  0
1353  0
1354  0
1355  0
1356  0
1357  0
1358  0
1359  0
1360  0
1361  0
1362  0
1363  0
1364  0
1365  0
1366  0
1367  0
1368  0
1369  0
1370  0
1371  0
1372  0
1373  0
1374  0
1375  0
1376  0
1377  0
1378  0
1379  0
1380  0
1381  0
1382  0
1383  0
1384  0
1385  0
1386  0
1387  0
1388  0
1389  0
1390  0
1391  0
1392  0
1393  0
1394  0
1395  0
1396  0
1397  0
1398  0
1399  0
1400  0
1401  0
1402  0
1403  0
1404  0
1405  0
1406  0
1407  0
1408  0
1409  0
1410  0
1411  0
1412  0
1413  0
1414  0
1415  0
1416  0
1417  0
1418  0
1419  0
1420  0
1421  0
1422  0
1423  0
1424  0
1425  0
1426  0
1427  0
1428  0
1429  0
1430  0
1431  0
1432  0
1433  0
1434  0
1435  0
1436  0
1437  0
1438  0
1439  0
1440  0
1441  0
1442  0
1443  0
1444  0
1445  0
1446  0
1447  0
1448  0
1449  0
1450  0
1451  0
1452  0
1453  0
1454  0
1455  0
1456  0
1457  0
1458  0
1459  0
1460  0
1461  0
1462  0
1463  0
1464  0
1465  0
1466  0
1467  0
1468  0
1469  0
1470  0
1471  0
1472  0
1473  0
1474  0
1475  0
1476  0
1477  0
1478  0
1479  0
1480  0
1481  0
1482  0
1483  0
1484  0
1485  0
1486  0
1487  0
1488  0
1489  0
1490  0
1491  0
1492  0
1493  0
1494  0
1495  0
1496  0
1497  0
1498  0
1499  0
1500  0
1501  0
1502  0
1503  0
1504  0
1505  0
1506  0
1507  0
1508  0
1509  0
1510  0
1511  0
1512  0
1513  0
1514  0
1515  0
1516  0
1517  0
1518  0
1519  0
1520  0
1521  0
1522  0
1523  0
1524  0
1525  0
1526  0
1527  0
1528  0
1529  0
1530  0
1531  0
1532  0
1533  0
1534  0
1535  0
1536  0
1537  0
1538  0
1539  0
1540  0
1541  0
1542  0
1543  0
1544  0
1545  0
1546  0
1547  0
1548  0
1549  0
1550  0
1551  0
1552  0
1553  0
1554  0
1555  0
1556  0
1557  0
1558  0
1559  0
1560  0
1561  0
1562  0
1563  0
1564  0
1565  0
1566  0
1567  0
1568  0
1569  0
1570  0
1571  0
1572  0
1573  0
1574  0
1575  0
1576  0
1577  0
1578  0
1579  0
1580  0
1581  0
1582  0
1583  0
1584  0
1585  0
1586  0
1587  0
1588  0
1589  0
1590  0
1591  0
1592  0
1593  0
1594  0
1595  0
1596  1
1597  3
1598  14
1599  44
1600  180
1601  590
1602  1738
1603  4014
1604  6491
1605  8748
1606  9978
1607  10276
1608  10232
1609  10675
1610  10100
1611  10306
1612  10011
1613  10163
1614  10054
1615  10027
1616  9973
1617  9898
1618  9658
1619  9464
1620  9178
1621  9212
1622  8925
1623  8961
1624  8903
1625  8709
1626  8435
1627  8285
1628  8015
1629  7730
1630  7710
1631  7362
1632  7166
1633  7200
1634  6778
1635  6777
1636  6513
1637  6245
1638  5895
1639  5711
1640  5683
1641  5319
1642  5089
1643  4916
1644  4754
1645  4613
1646  4476
1647  4171
1648  4050
1649  3865
1650  3748
1651  3621
1652  3350
1653  3230
1654  3073
1655  2959
1656  2813
1657  2766
1658  2592
1659  2498
1660  2477
1661  2279
1662  2267
1663  2013
1664  2072
1665  1910
1666  1850
1667  1732
1668  1727
1669  1627
1670  1604
1671  1541
1672  1382
1673  1394
1674  1357
1675  1358
1676  1225
1677  1153
1678  1103
1679  1062
1680  986
1681  1027
1682  946
1683  902
1684  837
1685  798
1686  792
1687  793
1688  727
1689  720
1690  713
1691  701
1692  678
1693  638
1694  634
1695  602
1696  600
1697  539
1698  504
1699  515
1700  531
1701  474
1702  484
1703  462
1704  459
1705  447
1706  381
1707  422
1708  436
1709  370
1710  388
1711  354
1712  349
1713  358
1714  345
1715  338
1716  306
1717  278
1718  289
1719  318
1720  275
1721  303
1722  265
1723  304
1724  282
1725  258
1726  255
1727  227
1728  235
1729  235
1730  200
1731  245
1732  223
1733  215
1734  256
1735  209
1736  214
1737  189
1738  188
1739  169
1740  180
1741  174
1742  185
1743  170
1744  177
1745  174
1746  155
1747  173
1748  197
1749  163
1750  148
1751  147
1752  167
1753  147
1754  173
1755  156
1756  157
1757  175
1758  151
1759  142
1760  142
1761  143
1762  153
1763  142
1764  156
1765  130
1766  132
1767  154
1768  151
1769  156
1770  143
1771  129
1772  121
1773  126
1774  136
1775  123
1776  150
1777  164
1778  166
1779  134
1780  143
1781  140
1782  131
1783  147
1784  133
1785  147
1786  171
1787  152
1788  151
1789  145
1790  128
1791  163
1792  147
1793  162
1794  170
1795  144
1796  180
1797  169
1798  165
1799  152
1800  170
1801  175
1802  162
1803  155
1804  183
1805  170
1806  182
1807  174
1808  182
1809  166
1810  191
1811  190
1812  166
1813  193
1814  213
1815  186
1816  209
1817  213
1818  210
1819  200
1820  191
1821  225
1822  231
1823  204
1824  214
1825  254
1826  227
1827  277
1828  256
1829  258
1830  229
1831  306
1832  252
1833  262
1834  258
1835  253
1836  252
1837  302
1838  265
1839  266
1840  318
1841  298
1842  297
1843  320
1844  325
1845  303
1846  333
1847  324
1848  320
1849  371
1850  333
1851  370
1852  334
1853  325
1854  356
1855  370
1856  338
1857  356
1858  379
1859  396
1860  400
1861  376
1862  407
1863  432
1864  451
1865  408
1866  399
1867  405
1868  431
1869  432
1870  460
1871  457
1872  481
1873  457
1874  468
1875  467
1876  461
1877  466
1878  493
1879  498
1880  517
1881  467
1882  465
1883  531
1884  545
1885  525
1886  524
1887  507
1888  606
1889  533
1890  600
1891  538
1892  523
1893  537
1894  576
1895  561
1896  566
1897  583
1898  563
1899  597
1900  610
1901  635
1902  585
1903  616
1904  610
1905  659
1906  626
1907  686
1908  629
1909  626
1910  631
1911  634
1912  626
1913  660
1914  628
1915  702
1916  673
1917  669
1918  687
1919  646
1920  692
1921  683
1922  680
1923  725
1924  696
1925  706
1926  740
1927  697
1928  682
1929  693
1930  708
1931  730
1932  753
1933  716
1934  707
1935  774
1936  715
1937  721
1938  687
1939  707
1940  720
1941  740
1942  733
1943  744
1944  770
1945  724
1946  749
1947  780
1948  789
1949  801
1950  785
1951  770
1952  797
1953  707
1954  751
1955  767
1956  791
1957  789
1958  839
1959  770
1960  806
1961  770
1962  786
1963  742
1964  786
1965  786
1966  752
1967  828
1968  788
1969  778
1970  820
1971  764
1972  795
1973  744
1974  788
1975  768
1976  773
1977  809
1978  764
1979  776
1980  802
1981  808
1982  777
1983  771
1984  791
1985  796
1986  807
1987  768
1988  751
1989  799
1990  809
1991  752
1992  850
1993  832
1994  780
1995  751
1996  755
1997  780
1998  748
1999  827
2000  749
2001  746
2002  739
2003  752
2004  697
2005  712
2006  749
2007  766
2008  764
2009  775
2010  746
2011  801
2012  769
2013  745
2014  736
2015  703
2016  761
2017  732
2018  728
2019  762
2020  742
2021  729
2022  716
2023  706
2024  722
2025  742
2026  747
2027  703
2028  761
2029  709
2030  710
2031  697
2032  704
2033  718
2034  721
2035  702
2036  700
2037  651
2038  671
2039  712
2040  658
2041  702
2042  687
2043  691
2044  699
2045  640
2046  684
2047  700
2048  604
2049  646
2050  681
2051  665
2052  608
2053  616
2054  649
2055  646
2056  631
2057  647
2058  647
2059  673
2060  594
2061  582
2062  647
2063  593
2064  601
2065  611
2066  570
2067  610
2068  599
2069  650
2070  615
2071  583
2072  589
2073  609
2074  558
2075  596
2076  496
2077  543
2078  578
2079  603
2080  551
2081  541
2082  533
2083  570
2084  581
2085  570
2086  561
2087  516
2088  572
2089  509
2090  531
2091  551
2092  514
2093  562
2094  537
2095  497
2096  505
2097  524
2098  557
2099  529
2100  535
2101  500
2102  515
2103  520
2104  509
2105  557
2106  504
2107  491
2108  511
2109  522
2110  481
2111  530
2112  471
2113  496
2114  464
2115  493
2116  514
2117  496
2118  458
2119  437
2120  482
2121  473
2122  468
2123  447
2124  439
2125  466
2126  465
2127  427
2128  454
2129  414
2130  459
2131  429
2132  391
2133  449
2134  446
2135  434
2136  411
2137  443
2138  399
2139  404
2140  389
2141  447
2142  425
2143  410
2144  392
2145  399
2146  384
2147  388
2148  422
2149  401
2150  411
2151  400
2152  420
2153  413
2154  385
2155  388
2156  425
2157  391
2158  360
2159  391
2160  379
2161  377
2162  373
2163  388
2164  377
2165  371
2166  387
2167  364
2168  376
2169  359
2170  363
2171  376
2172  368
2173  318
2174  377
2175  309
2176  321
2177  328
2178  335
2179  324
2180  338
2181  344
2182  353
2183  316
2184  318
2185  332
2186  316
2187  339
2188  313
2189  362
2190  293
2191  294
2192  324
2193  309
2194  304
2195  272
2196  314
2197  318
2198  306
2199  347
2200  292
2201  309
2202  329
2203  304
2204  264
2205  282
2206  278
2207  304
2208  299
2209  267
2210  267
2211  279
2212  281
2213  261
2214  277
2215  253
2216  275
2217  265
2218  275
2219  232
2220  254
2221  259
2222  269
2223  257
2224  265
2225  269
2226  264
2227  247
2228  235
2229  235
2230  268
2231  246
2232  218
2233  215
2234  232
2235  256
2236  259
2237  228
2238  225
2239  220
2240  251
2241  209
2242  233
2243  224
2244  247
2245  223
2246  230
2247  230
2248  178
2249  225
2250  194
2251  201
2252  193
2253  208
2254  202
2255  196
2256  205
2257  215
2258  209
2259  200
2260  179
2261  224
2262  197
2263  199
2264  202
2265  187
2266  184
2267  186
2268  187
2269  178
2270  173
2271  170
2272  193
2273  182
2274  197
2275  189
2276  190
2277  189
2278  194
2279  193
2280  168
2281  169
2282  180
2283  184
2284  176
2285  131
2286  142
2287  185
2288  153
2289  175
2290  174
2291  181
2292  170
2293  159
2294  146
2295  162
2296  146
2297  171
2298  140
2299  158
2300  146
2301  172
2302  145
2303  159
2304  176
2305  145
2306  157
2307  157
2308  144
2309  135
2310  144
2311  124
2312  152
2313  159
2314  133
2315  145
2316  126
2317  113
2318  139
2319  148
2320  155
2321  150
2322  120
2323  132
2324  145
2325  144
2326  129
2327  135
2328  139
2329  147
2330  120
2331  130
2332  128
2333  123
2334  121
2335  148
2336  124
2337  119
2338  117
2339  118
2340  96
2341  112
2342  116
2343  113
2344  118
2345  115
2346  121
2347  112
2348  108
2349  113
2350  121
2351  103
2352  114
2353  106
2354  124
2355  107
2356  93
2357  93
2358  122
2359  113
2360  109
2361  103
2362  119
2363  129
2364  114
2365  89
2366  118
2367  97
2368  98
2369  98
2370  107
2371  97
2372  94
2373  99
2374  89
2375  95
2376  99
2377  94
2378  96
2379  117
2380  100
2381  87
2382  87
2383  90
2384  97
2385  88
2386  92
2387  95
2388  84
2389  87
2390  87
2391  85
2392  80
2393  88
2394  84
2395  68
2396  77
2397  103
2398  80
2399  92
2400  89
2401  82
2402  82
2403  86
2404  87
2405  67
2406  91
2407  61
2408  95
2409  78
2410  79
2411  90
2412  88
2413  88
2414  86
2415  76
2416  93
2417  85
2418  85
2419  75
2420  75
2421  75
2422  78
2423  65
2424  80
2425  75
2426  74
2427  52
2428  69
2429  70
2430  65
2431  56
2432  59
2433  57
2434  73
2435  59
2436  69
2437  72
2438  79
2439  61
2440  66
2441  55
2442  73
2443  69
2444  72
2445  73
2446  59
2447  63
2448  61
2449  60
2450  69
2451  69
2452  65
2453  58
2454  58
2455  86
2456  65
2457  51
2458  46
2459  59
2460  55
2461  60
2462  54
2463  58
2464  56
2465  66
2466  59
2467  55
2468  69
2469  60
2470  61
2471  40
2472  72
2473  58
2474  54
2475  57
2476  47
2477  66
2478  50
2479  66
2480  57
2481  52
2482  53
2483  51
2484  53
2485  46
2486  47
2487  46
2488  57
2489  51
2490  58
2491  45
2492  54
2493  64
2494  58
2495  40
2496  49
2497  55
2498  42
2499  45
2500  45
2501  48
2502  48
2503  38
2504  31
2505  54
2506  47
2507  45
2508  42
2509  38
2510  40
2511  39
2512  42
2513  50
2514  38
2515  44
2516  45
2517  41
2518  44
2519  54
2520  47
2521  37
2522  43
2523  41
2524  59
2525  44
2526  38
2527  38
2528  38
2529  31
2530  42
2531  34
2532  34
2533  27
2534  43
2535  36
2536  31
2537  47
2538  20
2539  43
2540  24
2541  33
2542  39
2543  29
2544  34
2545  42
2546  29
2547  29
2548  41
2549  38
2550  29
2551  39
2552  39
2553  34
2554  37
2555  34
2556  36
2557  34
2558  26
2559  35
2560  34
2561  27
2562  34
2563  40
2564  37
2565  26
2566  41
2567  39
2568  29
2569  42
2570  33
2571  37
2572  23
2573  32
2574  38
2575  40
2576  29
2577  21
2578  25
2579  30
2580  34
2581  22
2582  25
2583  29
2584  29
2585  28
2586  40
2587  22
2588  25
2589  25
2590  24
2591  35
2592  33
2593  29
2594  29
2595  26
2596  24
2597  23
2598  24
2599  34
2600  27
2601  16
2602  33
2603  17
2604  24
2605  22
2606  20
2607  28
2608  26
2609  24
2610  23
2611  31
2612  27
2613  34
2614  20
2615  24
2616  27
2617  14
2618  16
2619  22
2620  28
2621  19
2622  18
2623  21
2624  24
2625  23
2626  29
2627  33
2628  23
2629  33
2630  18
2631  19
2632  23
2633  22
2634  25
2635  21
2636  17
2637  22
2638  23
2639  28
2640  14
2641  18
2642  22
2643  19
2644  29
2645  21
2646  27
2647  23
2648  31
2649  17
2650  24
2651  18
2652  17
2653  22
2654  20
2655  24
2656  22
2657  25
2658  22
2659  24
2660  21
2661  24
2662  20
2663  24
2664  22
2665  14
2666  19
2667  25
2668  16
2669  19
2670  21
2671  25
2672  23
2673  23
2674  13
2675  15
2676  28
2677  20
2678  19
2679  26
2680  31
2681  22
2682  16
2683  18
2684  22
2685  22
2686  24
2687  18
2688  20
2689  22
2690  15
2691  23
2692  16
2693  10
2694  18
2695  19
2696  14
2697  12
2698  17
2699  16
2700  20
2701  10
2702  16
2703  13
2704  17
2705  18
2706  26
2707  20
2708  20
2709  16
2710  15
2711  15
2712  15
2713  23
2714  10
2715  20
2716  19
2717  17
2718  20
2719  19
2720  19
2721  19
2722  18
2723  15
2724  16
2725  18
2726  14
2727  15
2728  15
2729  20
2730  14
2731  23
2732  14
2733  11
2734  13
2735  22
2736  14
2737  14
2738  10
2739  13
2740  9
2741  12
2742  10
2743  17
2744  10
2745  12
2746  11
2747  19
2748  19
2749  17
2750  11
2751  15
2752  10
2753  16
2754  12
2755  12
2756  15
2757  16
2758  12
2759  17
2760  15
2761  17
2762  16
2763  11
2764  15
2765  15
2766  18
2767  15
2768  20
2769  13
2770  11
2771  7
2772  14
2773  11
2774  9
2775  13
2776  9
2777  8
2778  9
2779  12
2780  18
2781  7
2782  22
2783  16
2784  6
2785  16
2786  17
2787  17
2788  13
2789  13
2790  12
2791  10
2792  16
2793  13
2794  11
2795  16
2796  17
2797  8
2798  12
2799  16
2800  10
2801  10
2802  10
2803  14
2804  17
2805  3
2806  8
2807  8
2808  9
2809  10
2810  11
2811  20
2812  9
2813  9
2814  7
2815  10
2816  13
2817  12
2818  9
2819  8
2820  11
2821  8
2822  10
2823  6
2824  11
2825  12
2826  16
2827  10
2828  12
2829  10
2830  10
2831  14
2832  12
2833  11
2834  12
2835  14
2836  3
2837  10
2838  13
2839  10
2840  10
2841  12
2842  11
2843  8
2844  4
2845  12
2846  13
2847  11
2848  13
2849  18
2850  11
2851  13
2852  9
2853  10
2854  10
2855  7
2856  6
2857  7
2858  12
2859  11
2860  4
2861  11
2862  6
2863  4
2864  7
2865  11
2866  8
2867  5
2868  10
2869  4
2870  5
2871  12
2872  13
2873  9
2874  12
2875  10
2876  8
2877  7
2878  6
2879  14
2880  12
2881  7
2882  11
2883  11
2884  9
2885  11
2886  6
2887  8
2888  12
2889  7
2890  7
2891  15
2892  9
2893  9
2894  9
2895  8
2896  12
2897  6
2898  6
2899  6
2900  11
2901  10
2902  5
2903  10
2904  6
2905  6
2906  7
2907  5
2908  7
2909  11
2910  7
2911  5
2912  8
2913  7
2914  5
2915  6
2916  8
2917  8
2918  9
2919  6
2920  3
2921  2
2922  4
2923  9
2924  6
2925  6
2926  7
2927  5
2928  8
2929  10
2930  7
2931  9
2932  8
2933  3
2934  11
2935  8
2936  8
2937  6
2938  6
2939  7
2940  5
2941  4
2942  11
2943  4
2944  9
2945  5
2946  3
2947  9
2948  7
2949  3
2950  5
2951  6
2952  4
2953  4
2954  3
2955  17
2956  5
2957  6
2958  9
2959  8
2960  3
2961  4
2962  6
2963  3
2964  11
2965  6
2966  12
2967  11
2968  6
2969  7
2970  4
2971  9
2972  5
2973  4
2974  7
2975  8
2976  7
2977  5
2978  8
2979  8
2980  9
2981  7
2982  8
2983  6
2984  3
2985  5
2986  10
2987  7
2988  6
2989  4
2990  9
2991  8
2992  9
2993  11
2994  9
2995  4
2996  6
2997  7
2998  6
2999  3
3000  5
3001  12
3002  2
3003  7
3004  6
3005  7
3006  5
3007  6
3008  5
3009  2
3010  11
3011  4
3012  4
3013  5
3014  11
3015  1
3016  6
3017  12
3018  8
3019  4
3020  7
3021  6
3022  7
3023  11
3024  10
3025  6
3026  9
3027  7
3028  5
3029  7
3030  7
3031  4
3032  5
3033  2
3034  9
3035  4
3036  8
3037  6
3038  5
3039  6
3040  4
3041  5
3042  6
3043  4
3044  4
3045  3
3046  8
3047  6
3048  5
3049  7
3050  7
3051  8
3052  5
3053  7
3054  7
3055  3
3056  4
3057  4
3058  5
3059  5
3060  4
3061  2
3062  6
3063  1
3064  3
3065  8
3066  3
3067  5
3068  3
3069  4
3070  4
3071  5
3072  5
3073  4
3074  6
3075  3
3076  5
3077  3
3078  4
3079  4
3080  7
3081  12
3082  7
3083  7
3084  6
3085  4
3086  3
3087  2
3088  3
3089  3
3090  3
3091  4
3092  4
3093  7
3094  5
3095  2
3096  7
3097  6
3098  4
3099  3
3100  4
3101  7
3102  3
3103  2
3104  6
3105  5
3106  3
3107  5
3108  6
3109  9
3110  4
3111  2
3112  3
3113  3
3114  4
3115  4
3116  7
3117  2
3118  6
3119  1
3120  3
3121  6
3122  4
3123  6
3124  8
3125  1
3126  3
3127  7
3128  4
3129  4
3130  2
3131  5
3132  3
3133  6
3134  3
3135  3
3136  4
3137  4
3138  8
3139  4
3140  4
3141  7
3142  2
3143  4
3144  6
3145  7
3146  7
3147  5
3148  4
3149  1
3150  7
3151  3
3152  2
3153  3
3154  6
3155  4
3156  5
3157  7
3158  2
3159  4
3160  2
3161  4
3162  2
3163  5
3164  4
3165  5
3166  3
3167  5
3168  2
3169  2
3170  1
3171  2
3172  4
3173  6
3174  9
3175  2
3176  5
3177  5
3178  4
3179  4
3180  9
3181  8
3182  5
3183  7
3184  4
3185  5
3186  2
3187  5
3188  7
3189  2
3190  4
3191  6
3192  2
3193  5
3194  1
3195  6
3196  4
3197  1
3198  3
3199  1
3200  5
3201  6
3202  0
3203  4
3204  3
3205  4
3206  3
3207  7
3208  3
3209  1
3210  2
3211  4
3212  4
3213  3
3214  6
3215  6
3216  7
3217  7
3218  3
3219  5
3220  5
3221  5
3222  2
3223  3
3224  6
3225  2
3226  6
3227  2
3228  1
3229  4
3230  7
3231  1
3232  5
3233  2
3234  4
3235  4
3236  3
3237  3
3238  4
3239  1
3240  2
3241  5
3242  2
3243  4
3244  3
3245  4
3246  1
3247  2
3248  2
3249  3
3250  4
3251  2
3252  3
3253  2
3254  4
3255  1
3256  6
3257  4
3258  2
3259  6
3260  5
3261  3
3262  5
3263  3
3264  3
3265  4
3266  5
3267  5
3268  3
3269  4
3270  1
3271  4
3272  2
3273  1
3274  2
3275  4
3276  1
3277  2
3278  4
3279  2
3280  6
3281  1
3282  4
3283  4
3284  4
3285  6
3286  1
3287  5
3288  6
3289  2
3290  4
3291  4
3292  2
3293  5
3294  1
3295  3
3296  3
3297  3
3298  2
3299  0
3300  2
3301  3
3302  2
3303  3
3304  3
3305  5
3306  3
3307  4
3308  2
3309  8
3310  3
3311  6
3312  1
3313  1
3314  5
3315  5
3316  5
3317  7
3318  4
3319  1
3320  4
3321  2
3322  0
3323  2
3324  2
3325  4
3326  2
3327  0
3328  1
3329  0
3330  3
3331  1
3332  5
3333  3
3334  4
3335  3
3336  2
3337  2
3338  6
3339  2
3340  1
3341  3
3342  3
3343  2
3344  0
3345  1
3346  7
3347  3
3348  2
3349  3
3350  5
3351  2
3352  2
3353  6
3354  2
3355  2
3356  1
3357  1
3358  5
3359  0
3360  3
3361  3
3362  2
3363  2
3364  2
3365  5
3366  2
3367  4
3368  2
3369  4
3370  6
3371  4
3372  2
3373  1
3374  4
3375  4
3376  2
3377  2
3378  2
3379  2
3380  6
3381  1
3382  2
3383  0
3384  3
3385  3
3386  3
3387  1
3388  4
3389  3
3390  1
3391  0
3392  2
3393  1
3394  3
3395  2
3396  5
3397  1
3398  6
3399  4
3400  1
3401  1
3402  2
3403  3
3404  1
3405  1
3406  4
3407  1
3408  3
3409  2
3410  2
3411  5
3412  4
3413  4
3414  1
3415  1
3416  4
3417  3
3418  4
3419  4
3420  3
3421  3
3422  2
3423  4
3424  3
3425  5
3426  3
3427  0
3428  2
3429  2
3430  5
3431  2
3432  5
3433  1
3434  2
3435  4
3436  6
3437  2
3438  0
3439  6
3440  3
3441  0
3442  2
3443  1
3444  2
3445  0
3446  4
3447  2
3448  3
3449  5
3450  9
3451  0
3452  2
3453  3
3454  5
3455  5
3456  3
3457  4
3458  6
3459  3
3460  3
3461  5
3462  2
3463  6
3464  2
3465  4
3466  3
3467  5
3468  1
3469  3
3470  2
3471  2
3472  3
3473  3
3474  2
3475  4
3476  4
3477  5
3478  2
3479  5
3480  5
3481  3
3482  2
3483  5
3484  3
3485  1
3486  7
3487  2
3488  3
3489  6
3490  3
3491  0
3492  2
3493  2
3494  2
3495  2
3496  7
3497  2
3498  2
3499  2
3500  2
3501  1
3502  1
3503  2
3504  7
3505  3
3506  5
3507  3
3508  1
3509  2
3510  2
3511  2
3512  2
3513  5
3514  2
3515  0
3516  4
3517  2
3518  6
3519  2
3520  5
3521  3
3522  3
3523  4
3524  4
3525  1
3526  2
3527  4
3528  5
3529  3
3530  3
3531  3
3532  1
3533  2
3534  1
3535  2
3536  5
3537  1
3538  5
3539  2
3540  3
3541  1
3542  4
3543  2
3544  10
3545  1
3546  6
3547  5
3548  2
3549  3
3550  1
3551  4
3552  4
3553  5
3554  3
3555  2
3556  3
3557  0
3558  4
3559  5
3560  6
3561  2
3562  7
3563  3
3564  2
3565  5
3566  1
3567  3
3568  0
3569  2
3570  2
3571  9
3572  2
3573  3
3574  3
3575  1
3576  1
3577  2
3578  2
3579  2
3580  1
3581  3
3582  3
3583  3
3584  2
3585  3
3586  1
3587  6
3588  3
3589  4
3590  1
3591  3
3592  1
3593  5
3594  3
3595  4
3596  4
3597  1
3598  2
3599  3
3600  3
3601  1
3602  4
3603  1
3604  1
3605  2
3606  2
3607  0
3608  1
3609  3
3610  6
3611  1
3612  1
3613  6
3614  5
3615  2
3616  3
3617  2
3618  5
3619  2
3620  1
3621  4
3622  1
3623  2
3624  1
3625  3
3626  5
3627  4
3628  3
3629  1
3630  3
3631  5
3632  5
3633  1
3634  4
3635  1
3636  3
3637  0
3638  4
3639  5
3640  4
3641  2
3642  2
3643  5
3644  2
3645  0
3646  3
3647  2
3648  3
3649  4
3650  3
3651  1
3652  4
3653  4
3654  6
3655  1
3656  2
3657  1
3658  6
3659  3
3660  4
3661  3
3662  1
3663  3
3664  2
3665  3
3666  2
3667  5
3668  3
3669  0
3670  4
3671  3
3672  3
3673  2
3674  4
3675  4
3676  3
3677  4
3678  3
3679  3
3680  2
3681  0
3682  5
3683  3
3684  0
3685  4
3686  1
3687  1
3688  1
3689  2
3690  2
3691  7
3692  3
3693  3
3694  0
3695  1
3696  1
3697  3
3698  1
3699  1
3700  4
3701  4
3702  0
3703  2
3704  6
3705  2
3706  5
3707  3
3708  2
3709  0
3710  3
3711  4
3712  1
3713  3
3714  4
3715  4
3716  4
3717  1
3718  0
3719  1
3720  2
3721  1
3722  3
3723  1
3724  3
3725  0
3726  3
3727  1
3728  3
3729  2
3730  1
3731  5
3732  2
3733  4
3734  5
3735  3
3736  1
3737  1
3738  0
3739  1
3740  4
3741  2
3742  2
3743  0
3744  4
3745  4
3746  3
3747  0
3748  2
3749  3
3750  1
3751  2
3752  2
3753  1
3754  3
3755  1
3756  1
3757  3
3758  3
3759  3
3760  3
3761  5
3762  5
3763  4
3764  6
3765  1
3766  4
3767  3
3768  2
3769  4
3770  4
3771  3
3772  7
3773  0
3774  3
3775  2
3776  4
3777  4
3778  4
3779  4
3780  5
3781  7
3782  5
3783  1
3784  3
3785  2
3786  2
3787  1
3788  0
3789  4
3790  3
3791  1
3792  4
3793  4
3794  4
3795  2
3796  2
3797  2
3798  3
3799  1
3800  4
3801  3
3802  3
3803  1
3804  2
3805  4
3806  2
3807  3
3808  1
3809  4
3810  2
3811  4
3812  5
3813  1
3814  4
3815  4
3816  0
3817  1
3818  0
3819  3
3820  2
3821  3
3822  0
3823  2
3824  4
3825  0
3826  3
3827  4
3828  3
3829  5
3830  4
3831  0
3832  2
3833  2
3834  1
3835  3
3836  1
3837  3
3838  3
3839  4
3840  0
3841  0
3842  0
3843  0
3844  0
3845  0
3846  0
3847  0
3848  0
3849  0
3850  0
3851  0
3852  0
3853  0
3854  0
3855  0
3856  0
3857  0
3858  0
3859  0
3860  0
3861  0
3862  0
3863  0
3864  0
3865  0
3866  0
3867  0
3868  0
3869  0
3870  0
3871  0
3872  0
3873  0
3874  0
3875  0
3876  0
3877  0
3878  0
3879  0
3880  0
3881  0
3882  0
3883  0
3884  0
3885  0
3886  0
3887  0
3888  0
3889  0
3890  0
3891  0
3892  0
3893  0
3894  0
3895  0
3896  0
3897  0
3898  0
3899  0
3900  0
3901  0
3902  0
3903  0
3904  0
3905  0
3906  0
3907  0
3908  0
3909  0
3910  0
3911  0
3912  0
3913  0
3914  0
3915  0
3916  0
3917  0
3918  0
3919  0
3920  0
3921  0
3922  0
3923  0
3924  0
3925  0
3926  0
3927  0
3928  0
3929  0
3930  0
3931  0
3932  0
3933  0
3934  0
3935  0
3936  0
3937  0
3938  0
3939  0
3940  0
3941  0
3942  0
3943  0
3944  0
3945  0
3946  0
3947  0
3948  0
3949  0
3950  0
3951  0
3952  0
3953  0
3954  0
3955  0
3956  0
3957  0
3958  0
3959  0
3960  0
3961  0
3962  0
3963  0
3964  0
3965  0
3966  0
3967  0
3968  0
3969  0
3970  0
3971  0
3972  0
3973  0
3974  0
3975  0
3976  0
3977  0
3978  0
3979  0
3980  0
3981  0
3982  0
3983  0
3984  0
3985  0
3986  0
3987  0
3988  0
3989  0
3990  0
3991  0
3992  0
3993  0
3994  0
3995  0
3996  0
3997  0
3998  0
3999  0
4000  0
4001  0
4002  0
4003  0
4004  0
4005  0
4006  0
4007  0
4008  0
4009  0
4010  0
4011  0
4012  0
4013  0
4014  0
4015  0
4016  0
4017  0
4018  0
4019  0
4020  0
4021  0
4022  0
4023  0
4024  0
4025  0
4026  0
4027  0
4028  0
4029  0
4030  0
4031  0
4032  0
4033  0
4034  0
4035  0
4036  0
4037  0
4038  0
4039  0
4040  0
4041  0
4042  0
4043  0
4044  0
4045  0
4046  0
4047  0
4048  0
4049  0
4050  0
4051  0
4052  0
4053  0
4054  0
4055  0
4056  0
4057  0
4058  0
4059  0
4060  0
4061  0
4062  0
4063  0
4064  0
4065  0
4066  0
4067  0
4068  0
4069  0
4070  0
4071  0
4072  0
4073  0
4074  0
4075  0
4076  0
4077  0
4078  0
4079  0
4080  0
4081  0
4082  0
4083  0
4084  0
4085  0
4086  0
4087  0
4088  0
4089  0
4090  0
4091  0
4092  0
4093  0
4094  0
4095  0
