0  107
1  129
2  168
3  184
4  252
5  309
6  304
7  369
8  396
9  474
10  512
11  556
12  580
13  656
14  648
15  671
16  601
17  684
18  602
19  605
20  573
21  523
22  478
23  451
24  376
25  362
26  297
27  235
28  217
29  176
30  142
31  121
32  90
33  77
34  51
35  45
36  43
37  33
38  13
39  13
40  10
41  7
42  6
43  7
44  6
45  1
46  3
47  0
48  1
49  2
50  0
51  0
52  0
53  0
54  0
55  0
56  0
57  0
58  0
59  0
60  0
61  0
62  0
63  0
64  0
65  0
66  0
67  0
68  0
69  0
70  0
71  0
72  0
73  0
74  0
75  0
76  0
77  0
78  0
79  0
80  0
81  0
82  0
83  0
84  0
85  0
86  0
87  0
88  0
89  0
90  0
91  0
92  0
93  0
94  0
95  0
96  0
97  0
98  0
99  0
100  0
101  0
102  0
103  0
104  0
105  0
106  0
107  0
108  0
109  0
110  0
111  0
112  0
113  0
114  0
115  0
116  0
117  0
118  0
119  0
120  0
121  0
122  0
123  0
124  0
125  0
126  0
127  0
128  0
129  0
130  0
131  0
132  0
133  0
134  0
135  0
136  0
137  0
138  0
139  0
140  0
141  0
142  0
143  0
144  0
145  0
146  0
147  0
148  0
149  0
150  0
151  0
152  0
153  0
154  0
155  0
156  0
157  0
158  0
159  0
160  0
161  0
162  0
163  0
164  0
165  0
166  0
167  0
168  0
169  0
170  0
171  0
172  0
173  0
174  0
175  0
176  0
177  0
178  0
179  0
180  0
181  0
182  0
183  0
184  0
185  0
186  0
187  1
188  1
189  0
190  1
191  1
192  3
193  0
194  0
195  1
196  2
197  1
198  2
199  8
200  4
201  6
202  6
203  6
204  7
205  13
206  15
207  19
208  18
209  24
210  29
211  28
212  37
213  33
214  36
215  35
216  26
217  37
218  35
219  48
220  38
221  52
222  28
223  33
224  38
225  20
226  45
227  36
228  29
229  24
230  27
231  26
232  31
233  15
234  23
235  8
236  14
237  12
238  12
239  9
240  6
241  8
242  6
243  11
244  5
245  8
246  14
247  8
248  11
249  8
250  7
251  11
252  11
253  5
254  6
255  13
256  9
257  8
258  7
259  6
260  7
261  10
262  10
263  8
264  8
265  6
266  12
267  6
268  6
269  8
270  4
271  8
272  10
273  7
274  5
275  5
276  2
277  10
278  11
279  4
280  6
281  5
282  4
283  6
284  9
285  7
286  9
287  6
288  14
289  5
290  14
291  11
292  3
293  11
294  4
295  7
296  8
297  5
298  5
299  5
300  5
301  4
302  8
303  8
304  11
305  5
306  6
307  3
308  5
309  6
310  4
311  8
312  7
313  11
314  6
315  5
316  6
317  10
318  9
319  6
320  5
321  6
322  11
323  3
324  13
325  8
326  10
327  13
328  4
329  7
330  5
331  6
332  6
333  4
334  7
335  11
336  9
337  10
338  6
339  9
340  10
341  5
342  7
343  7
344  4
345  7
346  7
347  4
348  8
349  7
350  2
351  6
352  5
353  9
354  8
355  7
356  5
357  6
358  9
359  6
360  8
361  8
362  9
363  8
364  4
365  4
366  14
367  3
368  6
369  12
370  4
371  6
372  6
373  14
374  7
375  5
376  12
377  13
378  4
379  15
380  8
381  9
382  11
383  8
384  6
385  6
386  2
387  8
388  10
389  5
390  7
391  6
392  9
393  10
394  8
395  6
396  13
397  12
398  3
399  6
400  2
401  10
402  9
403  5
404  7
405  7
406  6
407  11
408  13
409  7
410  4
411  11
412  5
413  5
414  6
415  6
416  5
417  10
418  3
419  11
420  5
421  5
422  8
423  11
424  8
425  11
426  6
427  7
428  5
429  7
430  8
431  10
432  6
433  10
434  8
435  10
436  9
437  10
438  7
439  7
440  6
441  9
442  6
443  7
444  5
445  10
446  8
447  8
448  10
449  13
450  5
451  12
452  10
453  8
454  5
455  7
456  6
457  6
458  6
459  11
460  5
461  8
462  6
463  11
464  8
465  9
466  4
467  8
468  9
469  7
470  5
471  8
472  6
473  6
474  9
475  8
476  8
477  7
478  4
479  9
480  3
481  7
482  7
483  9
484  6
485  9
486  12
487  10
488  11
489  11
490  9
491  9
492  10
493  6
494  8
495  8
496  11
497  5
498  5
499  8
500  8
501  6
502  11
503  6
504  11
505  8
506  13
507  6
508  7
509  4
510  5
511  10
512  7
513  8
514  5
515  8
516  7
517  6
518  4
519  6
520  5
521  8
522  4
523  8
524  7
525  7
526  8
527  7
528  6
529  7
530  4
531  11
532  6
533  5
534  12
535  12
536  7
537  5
538  7
539  13
540  12
541  7
542  13
543  7
544  8
545  6
546  9
547  10
548  13
549  17
550  9
551  9
552  10
553  7
554  5
555  9
556  10
557  5
558  8
559  8
560  9
561  5
562  9
563  10
564  8
565  8
566  6
567  14
568  5
569  7
570  5
571  7
572  9
573  13
574  5
575  16
576  6
577  10
578  8
579  6
580  9
581  7
582  7
583  10
584  9
585  11
586  8
587  9
588  5
589  15
590  10
591  11
592  8
593  9
594  9
595  6
596  9
597  7
598  6
599  11
600  8
601  9
602  13
603  8
604  6
605  4
606  11
607  11
608  7
609  6
610  7
611  10
612  4
613  4
614  8
615  10
616  7
617  9
618  13
619  7
620  8
621  6
622  10
623  6
624  5
625  7
626  7
627  7
628  7
629  5
630  11
631  11
632  7
633  10
634  8
635  9
636  11
637  3
638  11
639  8
640  4
641  11
642  11
643  7
644  11
645  13
646  14
647  10
648  17
649  8
650  11
651  8
652  11
653  4
654  3
655  9
656  9
657  15
658  4
659  11
660  5
661  7
662  8
663  12
664  13
665  8
666  8
667  6
668  12
669  6
670  6
671  8
672  11
673  10
674  6
675  7
676  8
677  6
678  9
679  12
680  5
681  10
682  7
683  6
684  9
685  6
686  13
687  6
688  9
689  11
690  9
691  8
692  10
693  10
694  8
695  3
696  8
697  6
698  3
699  7
700  9
701  6
702  8
703  8
704  8
705  10
706  10
707  11
708  3
709  8
710  12
711  9
712  12
713  5
714  8
715  7
716  9
717  8
718  7
719  8
720  4
721  11
722  6
723  8
724  9
725  13
726  5
727  12
728  7
729  6
730  11
731  7
732  8
733  4
734  9
735  5
736  10
737  11
738  10
739  3
740  3
741  6
742  11
743  4
744  7
745  7
746  8
747  7
748  6
749  8
750  8
751  6
752  8
753  10
754  7
755  8
756  6
757  8
758  11
759  4
760  9
761  4
762  7
763  10
764  4
765  7
766  6
767  7
768  7
769  5
770  11
771  7
772  8
773  10
774  10
775  7
776  7
777  6
778  6
779  4
780  9
781  6
782  8
783  8
784  6
785  15
786  8
787  4
788  7
789  6
790  9
791  9
792  7
793  9
794  9
795  8
796  7
797  8
798  6
799  9
800  3
801  10
802  5
803  9
804  6
805  8
806  7
807  11
808  7
809  8
810  7
811  5
812  4
813  5
814  3
815  7
816  10
817  10
818  7
819  6
820  6
821  8
822  5
823  6
824  9
825  5
826  6
827  10
828  8
829  9
830  10
831  9
832  6
833  12
834  5
835  9
836  9
837  7
838  7
839  8
840  6
841  10
842  8
843  9
844  5
845  7
846  8
847  3
848  10
849  8
850  12
851  9
852  13
853  10
854  7
855  10
856  10
857  5
858  6
859  11
860  9
861  9
862  6
863  4
864  8
865  5
866  9
867  8
868  11
869  6
870  9
871  6
872  3
873  18
874  7
875  8
876  9
877  7
878  4
879  6
880  3
881  10
882  7
883  10
884  8
885  5
886  11
887  5
888  5
889  5
890  9
891  10
892  8
893  10
894  8
895  5
896  11
897  11
898  7
899  10
900  8
901  2
902  5
903  11
904  7
905  11
906  6
907  10
908  7
909  11
910  9
911  7
912  10
913  11
914  7
915  7
916  5
917  5
918  8
919  11
920  5
921  8
922  12
923  10
924  8
925  9
926  5
927  6
928  6
929  5
930  9
931  9
932  2
933  6
934  8
935  8
936  6
937  4
938  10
939  7
940  14
941  7
942  5
943  6
944  9
945  4
946  3
947  9
948  7
949  6
950  5
951  6
952  5
953  11
954  7
955  7
956  14
957  7
958  7
959  8
960  13
961  8
962  6
963  6
964  6
965  5
966  8
967  9
968  6
969  9
970  6
971  7
972  4
973  7
974  10
975  9
976  5
977  7
978  7
979  7
980  9
981  10
982  7
983  6
984  10
985  12
986  11
987  7
988  13
989  6
990  10
991  6
992  6
993  5
994  4
995  11
996  11
997  6
998  8
999  3
1000  7
1001  8
1002  12
1003  5
1004  9
1005  8
1006  6
1007  10
1008  8
1009  8
1010  12
1011  3
1012  11
1013  8
1014  5
1015  4
1016  7
1017  9
1018  4
1019  12
1020  5
1021  5
1022  6
1023  11
1024  6
1025  8
1026  4
1027  11
1028  11
1029  4
1030  12
1031  8
1032  10
1033  5
1034  4
1035  6
1036  8
1037  7
1038  14
1039  11
1040  9
1041  6
1042  4
1043  6
1044  10
1045  12
1046  10
1047  3
1048  9
1049  11
1050  10
1051  3
1052  8
1053  3
1054  9
1055  4
1056  10
1057  11
1058  8
1059  11
1060  10
1061  7
1062  8
1063  5
1064  6
1065  6
1066  4
1067  11
1068  10
1069  6
1070  9
1071  4
1072  9
1073  4
1074  11
1075  11
1076  10
1077  8
1078  7
1079  10
1080  7
1081  8
1082  8
1083  9
1084  4
1085  12
1086  12
1087  10
1088  12
1089  7
1090  9
1091  9
1092  9
1093  9
1094  4
1095  11
1096  6
1097  4
1098  7
1099  11
1100  8
1101  7
1102  16
1103  7
1104  4
1105  9
1106  10
1107  5
1108  10
1109  11
1110  5
1111  7
1112  7
1113  8
1114  5
1115  7
1116  8
1117  9
1118  3
1119  9
1120  12
1121  8
1122  5
1123  5
1124  5
1125  5
1126  11
1127  11
1128  7
1129  7
1130  6
1131  4
1132  6
1133  10
1134  5
1135  10
1136  2
1137  11
1138  13
1139  8
1140  10
1141  15
1142  11
1143  8
1144  10
1145  10
1146  6
1147  8
1148  9
1149  9
1150  4
1151  9
1152  9
1153  8
1154  5
1155  7
1156  8
1157  16
1158  7
1159  4
1160  7
1161  10
1162  5
1163  11
1164  7
1165  6
1166  8
1167  8
1168  13
1169  5
1170  9
1171  7
1172  11
1173  11
1174  7
1175  9
1176  6
1177  6
1178  7
1179  9
1180  10
1181  10
1182  9
1183  10
1184  8
1185  10
1186  17
1187  5
1188  5
1189  9
1190  10
1191  7
1192  13
1193  10
1194  11
1195  8
1196  7
1197  10
1198  11
1199  5
1200  7
1201  9
1202  6
1203  8
1204  8
1205  3
1206  6
1207  0
1208  7
1209  9
1210  9
1211  3
1212  9
1213  8
1214  13
1215  7
1216  8
1217  9
1218  4
1219  10
1220  15
1221  13
1222  11
1223  8
1224  5
1225  5
1226  8
1227  12
1228  11
1229  6
1230  13
1231  9
1232  13
1233  8
1234  7
1235  9
1236  8
1237  14
1238  5
1239  10
1240  8
1241  8
1242  15
1243  9
1244  6
1245  7
1246  11
1247  5
1248  6
1249  14
1250  8
1251  9
1252  9
1253  12
1254  12
1255  8
1256  9
1257  16
1258  5
1259  8
1260  13
1261  11
1262  4
1263  7
1264  5
1265  13
1266  6
1267  11
1268  6
1269  8
1270  10
1271  13
1272  10
1273  8
1274  14
1275  12
1276  10
1277  9
1278  9
1279  9
1280  13
1281  15
1282  8
1283  7
1284  16
1285  8
1286  15
1287  11
1288  10
1289  8
1290  15
1291  7
1292  14
1293  7
1294  12
1295  10
1296  13
1297  15
1298  15
1299  9
1300  10
1301  9
1302  13
1303  7
1304  4
1305  7
1306  11
1307  15
1308  11
1309  10
1310  11
1311  8
1312  8
1313  13
1314  9
1315  7
1316  10
1317  10
1318  10
1319  8
1320  12
1321  4
1322  14
1323  11
1324  6
1325  10
1326  14
1327  14
1328  8
1329  7
1330  6
1331  16
1332  9
1333  9
1334  12
1335  10
1336  8
1337  18
1338  7
1339  12
1340  12
1341  10
1342  10
1343  13
1344  11
1345  10
1346  7
1347  12
1348  11
1349  8
1350  11
1351  15
1352  16
1353  8
1354  11
1355  5
1356  18
1357  16
1358  7
1359  14
1360  11
1361  9
1362  12
1363  19
1364  10
1365  11
1366  14
1367  5
1368  17
1369  14
1370  10
1371  12
1372  14
1373  18
1374  13
1375  14
1376  16
1377  13
1378  13
1379  7
1380  19
1381  12
1382  14
1383  12
1384  12
1385  14
1386  12
1387  15
1388  17
1389  14
1390  12
1391  12
1392  10
1393  17
1394  13
1395  13
1396  14
1397  12
1398  15
1399  14
1400  17
1401  16
1402  10
1403  10
1404  6
1405  10
1406  19
1407  17
1408  15
1409  14
1410  12
1411  7
1412  18
1413  9
1414  21
1415  16
1416  11
1417  9
1418  12
1419  9
1420  12
1421  12
1422  13
1423  15
1424  9
1425  10
1426  18
1427  11
1428  17
1429  12
1430  12
1431  15
1432  7
1433  18
1434  16
1435  15
1436  13
1437  18
1438  13
1439  10
1440  11
1441  14
1442  13
1443  19
1444  10
1445  15
1446  26
1447  10
1448  18
1449  7
1450  18
1451  15
1452  15
1453  12
1454  19
1455  13
1456  10
1457  18
1458  15
1459  16
1460  14
1461  24
1462  8
1463  19
1464  6
1465  28
1466  12
1467  18
1468  17
1469  11
1470  18
1471  16
1472  14
1473  13
1474  21
1475  10
1476  14
1477  17
1478  16
1479  16
1480  11
1481  20
1482  25
1483  15
1484  10
1485  18
1486  15
1487  18
1488  18
1489  12
1490  16
1491  18
1492  8
1493  11
1494  19
1495  26
1496  14
1497  18
1498  25
1499  19
1500  25
1501  11
1502  15
1503  16
1504  14
1505  18
1506  25
1507  16
1508  26
1509  10
1510  12
1511  17
1512  15
1513  16
1514  20
1515  15
1516  21
1517  24
1518  16
1519  16
1520  17
1521  15
1522  16
1523  13
1524  24
1525  14
1526  20
1527  19
1528  22
1529  19
1530  21
1531  23
1532  24
1533  19
1534  24
1535  19
1536  7
1537  27
1538  20
1539  14
1540  16
1541  25
1542  23
1543  16
1544  28
1545  18
1546  18
1547  14
1548  16
1549  24
1550  20
1551  21
1552  18
1553  17
1554  15
1555  19
1556  17
1557  28
1558  29
1559  24
1560  17
1561  16
1562  21
1563  20
1564  20
1565  23
1566  21
1567  15
1568  19
1569  22
1570  15
1571  32
1572  19
1573  23
1574  26
1575  24
1576  15
1577  27
1578  23
1579  17
1580  22
1581  21
1582  28
1583  26
1584  26
1585  25
1586  19
1587  21
1588  15
1589  23
1590  24
1591  21
1592  11
1593  17
1594  27
1595  17
1596  20
1597  22
1598  22
1599  25
1600  21
1601  21
1602  23
1603  22
1604  33
1605  26
1606  26
1607  22
1608  23
1609  18
1610  11
1611  27
1612  18
1613  24
1614  22
1615  24
1616  26
1617  18
1618  23
1619  19
1620  28
1621  21
1622  17
1623  38
1624  31
1625  25
1626  26
1627  23
1628  27
1629  25
1630  34
1631  23
1632  25
1633  23
1634  25
1635  22
1636  16
1637  29
1638  21
1639  14
1640  31
1641  27
1642  25
1643  20
1644  22
1645  22
1646  21
1647  28
1648  36
1649  31
1650  42
1651  23
1652  29
1653  29
1654  27
1655  23
1656  28
1657  24
1658  24
1659  29
1660  20
1661  27
1662  30
1663  29
1664  29
1665  28
1666  34
1667  30
1668  34
1669  24
1670  28
1671  36
1672  31
1673  28
1674  29
1675  35
1676  32
1677  26
1678  21
1679  26
1680  29
1681  26
1682  25
1683  18
1684  28
1685  36
1686  27
1687  26
1688  37
1689  28
1690  32
1691  29
1692  24
1693  29
1694  31
1695  34
1696  19
1697  27
1698  21
1699  19
1700  24
1701  42
1702  31
1703  26
1704  34
1705  38
1706  34
1707  28
1708  37
1709  25
1710  40
1711  26
1712  20
1713  19
1714  28
1715  30
1716  35
1717  33
1718  30
1719  36
1720  29
1721  28
1722  25
1723  37
1724  34
1725  23
1726  17
1727  32
1728  35
1729  22
1730  26
1731  31
1732  35
1733  33
1734  42
1735  34
1736  36
1737  31
1738  34
1739  32
1740  39
1741  31
1742  32
1743  48
1744  28
1745  41
1746  36
1747  36
1748  28
1749  34
1750  31
1751  30
1752  28
1753  51
1754  34
1755  38
1756  32
1757  27
1758  27
1759  36
1760  26
1761  30
1762  40
1763  32
1764  37
1765  31
1766  34
1767  40
1768  41
1769  40
1770  38
1771  37
1772  37
1773  33
1774  48
1775  46
1776  44
1777  35
1778  37
1779  29
1780  39
1781  33
1782  29
1783  29
1784  40
1785  33
1786  36
1787  26
1788  33
1789  28
1790  45
1791  27
1792  27
1793  25
1794  47
1795  29
1796  37
1797  32
1798  38
1799  31
1800  47
1801  35
1802  30
1803  39
1804  41
1805  38
1806  26
1807  42
1808  41
1809  36
1810  39
1811  39
1812  37
1813  28
1814  36
1815  36
1816  49
1817  49
1818  28
1819  30
1820  40
1821  25
1822  43
1823  31
1824  41
1825  41
1826  40
1827  40
1828  41
1829  38
1830  46
1831  41
1832  33
1833  45
1834  34
1835  45
1836  42
1837  39
1838  37
1839  37
1840  42
1841  37
1842  40
1843  42
1844  34
1845  32
1846  40
1847  45
1848  41
1849  43
1850  39
1851  40
1852  42
1853  39
1854  39
1855  50
1856  40
1857  31
1858  24
1859  50
1860  31
1861  36
1862  36
1863  31
1864  40
1865  39
1866  45
1867  53
1868  27
1869  46
1870  43
1871  45
1872  57
1873  47
1874  50
1875  54
1876  41
1877  41
1878  41
1879  31
1880  39
1881  46
1882  57
1883  45
1884  34
1885  47
1886  47
1887  38
1888  39
1889  36
1890  41
1891  46
1892  43
1893  41
1894  42
1895  35
1896  45
1897  34
1898  37
1899  30
1900  38
1901  51
1902  39
1903  40
1904  53
1905  44
1906  45
1907  41
1908  38
1909  51
1910  44
1911  58
1912  30
1913  51
1914  31
1915  40
1916  43
1917  53
1918  36
1919  44
1920  29
1921  50
1922  50
1923  40
1924  46
1925  50
1926  41
1927  47
1928  35
1929  39
1930  32
1931  38
1932  51
1933  53
1934  48
1935  52
1936  41
1937  49
1938  43
1939  49
1940  64
1941  49
1942  43
1943  36
1944  40
1945  34
1946  50
1947  43
1948  46
1949  55
1950  55
1951  57
1952  44
1953  34
1954  34
1955  62
1956  41
1957  49
1958  45
1959  38
1960  61
1961  40
1962  44
1963  41
1964  52
1965  37
1966  49
1967  47
1968  56
1969  47
1970  51
1971  45
1972  42
1973  48
1974  44
1975  42
1976  50
1977  35
1978  50
1979  55
1980  44
1981  50
1982  52
1983  58
1984  35
1985  53
1986  37
1987  41
1988  58
1989  54
1990  42
1991  53
1992  45
1993  47
1994  54
1995  59
1996  54
1997  53
1998  39
1999  56
2000  36
2001  62
2002  56
2003  68
2004  41
2005  57
2006  52
2007  38
2008  46
2009  44
2010  50
2011  52
2012  58
2013  44
2014  49
2015  49
2016  47
2017  56
2018  53
2019  43
2020  50
2021  54
2022  54
2023  52
2024  59
2025  52
2026  53
2027  51
2028  59
2029  65
2030  46
2031  50
2032  42
2033  56
2034  57
2035  35
2036  45
2037  44
2038  51
2039  41
2040  50
2041  55
2042  54
2043  54
2044  43
2045  48
2046  46
2047  55
2048  52
2049  65
2050  51
2051  58
2052  59
2053  53
2054  49
2055  52
2056  54
2057  52
2058  55
2059  59
2060  71
2061  46
2062  52
2063  54
2064  59
2065  56
2066  48
2067  48
2068  51
2069  53
2070  55
2071  47
2072  63
2073  60
2074  56
2075  47
2076  52
2077  51
2078  52
2079  58
2080  55
2081  52
2082  35
2083  66
2084  57
2085  67
2086  46
2087  57
2088  47
2089  46
2090  54
2091  52
2092  43
2093  57
2094  37
2095  55
2096  54
2097  54
2098  68
2099  54
2100  64
2101  56
2102  54
2103  63
2104  50
2105  59
2106  73
2107  49
2108  63
2109  50
2110  53
2111  65
2112  63
2113  63
2114  51
2115  59
2116  59
2117  59
2118  49
2119  60
2120  63
2121  65
2122  59
2123  69
2124  46
2125  63
2126  39
2127  41
2128  56
2129  59
2130  51
2131  55
2132  40
2133  55
2134  52
2135  53
2136  38
2137  55
2138  47
2139  64
2140  60
2141  45
2142  48
2143  47
2144  63
2145  62
2146  49
2147  60
2148  61
2149  45
2150  44
2151  55
2152  57
2153  58
2154  56
2155  46
2156  57
2157  51
2158  63
2159  43
2160  67
2161  61
2162  58
2163  66
2164  56
2165  58
2166  59
2167  51
2168  63
2169  67
2170  65
2171  70
2172  63
2173  73
2174  60
2175  50
2176  49
2177  59
2178  69
2179  58
2180  60
2181  48
2182  71
2183  61
2184  54
2185  55
2186  42
2187  49
2188  64
2189  71
2190  58
2191  62
2192  52
2193  58
2194  49
2195  55
2196  52
2197  58
2198  69
2199  61
2200  50
2201  62
2202  55
2203  51
2204  66
2205  62
2206  48
2207  51
2208  55
2209  56
2210  63
2211  56
2212  55
2213  56
2214  54
2215  54
2216  55
2217  57
2218  56
2219  51
2220  64
2221  67
2222  59
2223  65
2224  55
2225  64
2226  62
2227  61
2228  53
2229  50
2230  72
2231  59
2232  73
2233  53
2234  50
2235  48
2236  66
2237  66
2238  73
2239  64
2240  67
2241  53
2242  54
2243  66
2244  54
2245  58
2246  49
2247  74
2248  67
2249  74
2250  45
2251  53
2252  61
2253  73
2254  51
2255  59
2256  56
2257  60
2258  61
2259  60
2260  51
2261  58
2262  59
2263  50
2264  65
2265  65
2266  56
2267  58
2268  70
2269  78
2270  59
2271  56
2272  59
2273  74
2274  61
2275  75
2276  44
2277  62
2278  58
2279  53
2280  72
2281  73
2282  49
2283  78
2284  71
2285  62
2286  70
2287  54
2288  55
2289  65
2290  69
2291  61
2292  68
2293  47
2294  48
2295  60
2296  56
2297  62
2298  67
2299  77
2300  50
2301  60
2302  49
2303  66
2304  58
2305  72
2306  61
2307  75
2308  66
2309  67
2310  64
2311  52
2312  71
2313  71
2314  68
2315  71
2316  59
2317  64
2318  71
2319  76
2320  64
2321  57
2322  54
2323  80
2324  60
2325  67
2326  63
2327  66
2328  83
2329  76
2330  59
2331  73
2332  58
2333  56
2334  54
2335  48
2336  67
2337  49
2338  55
2339  61
2340  48
2341  58
2342  69
2343  65
2344  59
2345  72
2346  53
2347  73
2348  50
2349  57
2350  63
2351  65
2352  66
2353  66
2354  61
2355  58
2356  65
2357  68
2358  51
2359  61
2360  63
2361  58
2362  59
2363  63
2364  60
2365  73
2366  65
2367  52
2368  72
2369  60
2370  59
2371  60
2372  72
2373  59
2374  63
2375  60
2376  60
2377  76
2378  60
2379  66
2380  65
2381  54
2382  62
2383  63
2384  73
2385  75
2386  75
2387  65
2388  69
2389  56
2390  55
2391  59
2392  65
2393  62
2394  65
2395  69
2396  74
2397  63
2398  58
2399  78
2400  71
2401  62
2402  56
2403  65
2404  50
2405  55
2406  69
2407  56
2408  63
2409  65
2410  65
2411  70
2412  75
2413  52
2414  66
2415  60
2416  68
2417  57
2418  67
2419  52
2420  62
2421  62
2422  68
2423  75
2424  66
2425  58
2426  69
2427  69
2428  71
2429  61
2430  74
2431  70
2432  64
2433  67
2434  44
2435  54
2436  61
2437  58
2438  54
2439  70
2440  54
2441  60
2442  56
2443  71
2444  63
2445  65
2446  75
2447  53
2448  71
2449  74
2450  75
2451  77
2452  60
2453  61
2454  60
2455  67
2456  78
2457  60
2458  72
2459  49
2460  73
2461  62
2462  53
2463  54
2464  76
2465  49
2466  59
2467  61
2468  60
2469  68
2470  58
2471  57
2472  56
2473  53
2474  68
2475  65
2476  62
2477  59
2478  46
2479  64
2480  56
2481  48
2482  66
2483  54
2484  54
2485  60
2486  70
2487  65
2488  76
2489  50
2490  52
2491  74
2492  51
2493  72
2494  80
2495  55
2496  73
2497  59
2498  73
2499  56
2500  60
2501  81
2502  62
2503  64
2504  71
2505  59
2506  59
2507  60
2508  61
2509  73
2510  65
2511  49
2512  65
2513  63
2514  50
2515  72
2516  71
2517  59
2518  63
2519  71
2520  65
2521  69
2522  62
2523  57
2524  64
2525  58
2526  56
2527  60
2528  76
2529  58
2530  78
2531  60
2532  65
2533  71
2534  51
2535  75
2536  67
2537  68
2538  55
2539  58
2540  59
2541  69
2542  47
2543  82
2544  60
2545  58
2546  68
2547  64
2548  66
2549  82
2550  66
2551  63
2552  72
2553  70
2554  53
2555  52
2556  61
2557  59
2558  60
2559  61
2560  64
2561  50
2562  58
2563  61
2564  65
2565  56
2566  57
2567  63
2568  58
2569  75
2570  49
2571  67
2572  77
2573  53
2574  55
2575  60
2576  50
2577  48
2578  59
2579  58
2580  61
2581  50
2582  59
2583  57
2584  57
2585  55
2586  63
2587  53
2588  56
2589  55
2590  45
2591  63
2592  72
2593  53
2594  56
2595  65
2596  55
2597  52
2598  52
2599  58
2600  60
2601  43
2602  56
2603  52
2604  46
2605  63
2606  61
2607  48
2608  40
2609  53
2610  51
2611  59
2612  55
2613  59
2614  56
2615  53
2616  48
2617  43
2618  52
2619  58
2620  46
2621  56
2622  45
2623  63
2624  38
2625  56
2626  47
2627  68
2628  56
2629  55
2630  62
2631  71
2632  69
2633  60
2634  57
2635  46
2636  51
2637  46
2638  43
2639  45
2640  50
2641  63
2642  45
2643  56
2644  60
2645  45
2646  44
2647  44
2648  39
2649  55
2650  45
2651  55
2652  47
2653  45
2654  55
2655  41
2656  44
2657  60
2658  50
2659  55
2660  52
2661  51
2662  43
2663  58
2664  54
2665  46
2666  51
2667  45
2668  44
2669  46
2670  56
2671  57
2672  58
2673  42
2674  45
2675  54
2676  47
2677  53
2678  53
2679  57
2680  44
2681  43
2682  54
2683  51
2684  48
2685  41
2686  41
2687  38
2688  39
2689  55
2690  51
2691  44
2692  40
2693  42
2694  45
2695  53
2696  37
2697  51
2698  44
2699  54
2700  46
2701  50
2702  41
2703  37
2704  50
2705  50
2706  46
2707  44
2708  44
2709  46
2710  43
2711  42
2712  55
2713  38
2714  50
2715  50
2716  38
2717  52
2718  46
2719  32
2720  50
2721  45
2722  38
2723  47
2724  44
2725  58
2726  40
2727  37
2728  38
2729  42
2730  42
2731  46
2732  41
2733  48
2734  51
2735  40
2736  56
2737  41
2738  36
2739  33
2740  41
2741  48
2742  36
2743  48
2744  44
2745  44
2746  30
2747  27
2748  41
2749  46
2750  42
2751  50
2752  39
2753  47
2754  34
2755  42
2756  39
2757  43
2758  38
2759  42
2760  46
2761  33
2762  31
2763  28
2764  43
2765  34
2766  43
2767  31
2768  24
2769  40
2770  34
2771  29
2772  34
2773  30
2774  48
2775  41
2776  35
2777  32
2778  32
2779  41
2780  29
2781  42
2782  30
2783  33
2784  35
2785  32
2786  28
2787  35
2788  33
2789  39
2790  36
2791  32
2792  29
2793  32
2794  39
2795  29
2796  29
2797  34
2798  38
2799  26
2800  37
2801  34
2802  20
2803  32
2804  30
2805  24
2806  29
2807  37
2808  32
2809  40
2810  25
2811  37
2812  27
2813  27
2814  31
2815  31
2816  31
2817  31
2818  38
2819  23
2820  25
2821  26
2822  23
2823  24
2824  28
2825  28
2826  21
2827  31
2828  26
2829  26
2830  25
2831  37
2832  24
2833  30
2834  32
2835  20
2836  26
2837  20
2838  23
2839  27
2840  23
2841  26
2842  17
2843  24
2844  21
2845  23
2846  25
2847  25
2848  23
2849  21
2850  15
2851  23
2852  18
2853  24
2854  22
2855  19
2856  21
2857  24
2858  26
2859  18
2860  30
2861  31
2862  21
2863  20
2864  22
2865  18
2866  19
2867  26
2868  24
2869  28
2870  16
2871  28
2872  11
2873  13
2874  17
2875  17
2876  26
2877  21
2878  25
2879  14
2880  23
2881  19
2882  22
2883  19
2884  12
2885  14
2886  25
2887  15
2888  19
2889  11
2890  17
2891  21
2892  16
2893  17
2894  19
2895  18
2896  20
2897  21
2898  8
2899  17
2900  15
2901  12
2902  17
2903  20
2904  9
2905  16
2906  18
2907  15
2908  19
2909  15
2910  16
2911  17
2912  21
2913  18
2914  13
2915  13
2916  16
2917  14
2918  9
2919  14
2920  15
2921  15
2922  9
2923  19
2924  12
2925  10
2926  14
2927  16
2928  17
2929  17
2930  19
2931  19
2932  15
2933  21
2934  17
2935  13
2936  13
2937  13
2938  17
2939  13
2940  19
2941  11
2942  20
2943  12
2944  14
2945  10
2946  14
2947  18
2948  31
2949  12
2950  16
2951  20
2952  12
2953  11
2954  24
2955  15
2956  17
2957  11
2958  19
2959  14
2960  20
2961  17
2962  11
2963  11
2964  12
2965  15
2966  14
2967  13
2968  10
2969  12
2970  11
2971  11
2972  21
2973  18
2974  21
2975  19
2976  16
2977  9
2978  18
2979  13
2980  7
2981  17
2982  9
2983  15
2984  16
2985  18
2986  13
2987  16
2988  13
2989  19
2990  21
2991  16
2992  17
2993  17
2994  19
2995  18
2996  14
2997  16
2998  12
2999  14
3000  18
3001  16
3002  13
3003  9
3004  13
3005  15
3006  17
3007  14
3008  9
3009  22
3010  13
3011  15
3012  12
3013  5
3014  7
3015  17
3016  12
3017  12
3018  12
3019  17
3020  15
3021  11
3022  9
3023  20
3024  8
3025  21
3026  10
3027  14
3028  16
3029  20
3030  15
3031  15
3032  12
3033  13
3034  12
3035  10
3036  11
3037  9
3038  7
3039  10
3040  10
3041  8
3042  12
3043  16
3044  6
3045  16
3046  12
3047  9
3048  16
3049  9
3050  8
3051  11
3052  7
3053  11
3054  6
3055  9
3056  13
3057  16
3058  13
3059  11
3060  16
3061  9
3062  8
3063  11
3064  6
3065  13
3066  5
3067  10
3068  12
3069  7
3070  14
3071  9
3072  8
3073  11
3074  3
3075  6
3076  10
3077  9
3078  3
3079  7
3080  3
3081  4
3082  6
3083  7
3084  7
3085  10
3086  4
3087  6
3088  7
3089  10
3090  6
3091  5
3092  5
3093  7
3094  11
3095  9
3096  11
3097  5
3098  8
3099  5
3100  5
3101  4
3102  9
3103  14
3104  4
3105  16
3106  14
3107  8
3108  15
3109  6
3110  11
3111  5
3112  11
3113  7
3114  11
3115  11
3116  14
3117  7
3118  6
3119  10
3120  8
3121  5
3122  7
3123  7
3124  13
3125  9
3126  7
3127  3
3128  3
3129  10
3130  7
3131  10
3132  7
3133  3
3134  14
3135  4
3136  7
3137  9
3138  7
3139  6
3140  6
3141  7
3142  11
3143  5
3144  8
3145  12
3146  7
3147  8
3148  10
3149  4
3150  6
3151  11
3152  9
3153  5
3154  7
3155  6
3156  7
3157  4
3158  7
3159  8
3160  6
3161  5
3162  7
3163  6
3164  8
3165  9
3166  9
3167  6
3168  6
3169  5
3170  6
3171  5
3172  3
3173  5
3174  10
3175  8
3176  7
3177  6
3178  6
3179  8
3180  11
3181  7
3182  5
3183  9
3184  6
3185  6
3186  6
3187  10
3188  11
3189  5
3190  6
3191  10
3192  7
3193  6
3194  7
3195  6
3196  7
3197  9
3198  6
3199  11
3200  9
3201  12
3202  6
3203  10
3204  14
3205  11
3206  4
3207  4
3208  6
3209  3
3210  9
3211  6
3212  3
3213  13
3214  6
3215  5
3216  8
3217  10
3218  7
3219  6
3220  6
3221  7
3222  9
3223  7
3224  13
3225  10
3226  7
3227  6
3228  9
3229  10
3230  6
3231  9
3232  10
3233  6
3234  10
3235  11
3236  8
3237  5
3238  8
3239  7
3240  8
3241  8
3242  4
3243  15
3244  9
3245  6
3246  6
3247  10
3248  5
3249  9
3250  7
3251  9
3252  12
3253  7
3254  5
3255  12
3256  10
3257  9
3258  6
3259  9
3260  4
3261  4
3262  7
3263  4
3264  6
3265  7
3266  10
3267  8
3268  10
3269  7
3270  8
3271  5
3272  10
3273  10
3274  15
3275  10
3276  8
3277  7
3278  7
3279  8
3280  9
3281  3
3282  15
3283  5
3284  13
3285  7
3286  8
3287  5
3288  9
3289  7
3290  7
3291  5
3292  8
3293  8
3294  9
3295  17
3296  10
3297  7
3298  6
3299  8
3300  7
3301  11
3302  7
3303  8
3304  10
3305  11
3306  6
3307  5
3308  10
3309  10
3310  6
3311  10
3312  15
3313  5
3314  5
3315  13
3316  6
3317  7
3318  3
3319  8
3320  5
3321  11
3322  7
3323  7
3324  7
3325  4
3326  8
3327  6
3328  8
3329  7
3330  8
3331  15
3332  5
3333  3
3334  10
3335  1
3336  9
3337  7
3338  6
3339  7
3340  6
3341  8
3342  16
3343  6
3344  5
3345  10
3346  8
3347  9
3348  6
3349  6
3350  10
3351  5
3352  11
3353  8
3354  8
3355  5
3356  7
3357  9
3358  5
3359  7
3360  11
3361  4
3362  10
3363  12
3364  8
3365  11
3366  7
3367  12
3368  5
3369  4
3370  6
3371  6
3372  4
3373  8
3374  7
3375  7
3376  5
3377  10
3378  6
3379  10
3380  6
3381  7
3382  8
3383  6
3384  9
3385  6
3386  8
3387  3
3388  5
3389  7
3390  6
3391  8
3392  3
3393  6
3394  6
3395  7
3396  13
3397  8
3398  7
3399  12
3400  9
3401  2
3402  7
3403  4
3404  5
3405  9
3406  1
3407  7
3408  8
3409  10
3410  4
3411  6
3412  9
3413  5
3414  6
3415  4
3416  9
3417  5
3418  9
3419  6
3420  10
3421  6
3422  5
3423  10
3424  7
3425  11
3426  9
3427  6
3428  6
3429  9
3430  8
3431  9
3432  4
3433  7
3434  6
3435  8
3436  7
3437  7
3438  8
3439  8
3440  9
3441  10
3442  6
3443  7
3444  12
3445  10
3446  11
3447  5
3448  6
3449  6
3450  5
3451  8
3452  10
3453  9
3454  8
3455  6
3456  10
3457  8
3458  13
3459  5
3460  11
3461  9
3462  3
3463  10
3464  5
3465  11
3466  6
3467  12
3468  12
3469  7
3470  11
3471  10
3472  12
3473  6
3474  5
3475  13
3476  4
3477  10
3478  9
3479  6
3480  11
3481  9
3482  12
3483  21
3484  11
3485  14
3486  17
3487  8
3488  13
3489  14
3490  19
3491  9
3492  13
3493  14
3494  16
3495  13
3496  22
3497  15
3498  16
3499  13
3500  9
3501  14
3502  16
3503  16
3504  18
3505  19
3506  11
3507  15
3508  15
3509  24
3510  19
3511  25
3512  25
3513  25
3514  14
3515  23
3516  23
3517  25
3518  23
3519  24
3520  26
3521  28
3522  34
3523  44
3524  35
3525  41
3526  59
3527  63
3528  76
3529  89
3530  76
3531  151
3532  175
3533  188
3534  270
3535  310
3536  418
3537  509
3538  590
3539  734
3540  872
3541  1084
3542  1256
3543  1412
3544  1631
3545  1910
3546  2122
3547  2314
3548  2712
3549  2805
3550  3067
3551  3297
3552  3606
3553  3671
3554  3765
3555  3892
3556  3829
3557  3819
3558  3939
3559  3961
3560  3916
3561  3646
3562  3596
3563  3407
3564  3165
3565  3060
3566  2894
3567  2583
3568  2381
3569  2207
3570  2049
3571  1958
3572  1644
3573  1555
3574  1426
3575  1284
3576  1229
3577  1050
3578  1008
3579  842
3580  848
3581  750
3582  717
3583  692
3584  610
3585  575
3586  503
3587  453
3588  433
3589  411
3590  412
3591  337
3592  336
3593  332
3594  298
3595  294
3596  253
3597  271
3598  203
3599  194
3600  216
3601  190
3602  156
3603  129
3604  177
3605  155
3606  112
3607  142
3608  104
3609  84
3610  86
3611  89
3612  79
3613  50
3614  58
3615  53
3616  41
3617  32
3618  35
3619  34
3620  30
3621  32
3622  34
3623  28
3624  18
3625  17
3626  17
3627  19
3628  16
3629  11
3630  13
3631  19
3632  13
3633  20
3634  9
3635  12
3636  12
3637  10
3638  18
3639  7
3640  11
3641  8
3642  13
3643  10
3644  15
3645  6
3646  15
3647  9
3648  7
3649  5
3650  8
3651  13
3652  11
3653  8
3654  12
3655  7
3656  10
3657  11
3658  10
3659  8
3660  9
3661  10
3662  10
3663  11
3664  5
3665  14
3666  7
3667  11
3668  3
3669  6
3670  7
3671  8
3672  6
3673  11
3674  4
3675  8
3676  5
3677  7
3678  7
3679  7
3680  16
3681  12
3682  9
3683  8
3684  7
3685  8
3686  11
3687  6
3688  8
3689  13
3690  10
3691  9
3692  6
3693  7
3694  7
3695  7
3696  6
3697  10
3698  4
3699  7
3700  10
3701  7
3702  10
3703  9
3704  9
3705  6
3706  13
3707  10
3708  8
3709  3
3710  12
3711  6
3712  6
3713  7
3714  5
3715  4
3716  10
3717  7
3718  16
3719  6
3720  11
3721  3
3722  10
3723  4
3724  11
3725  8
3726  7
3727  7
3728  3
3729  7
3730  3
3731  9
3732  6
3733  14
3734  6
3735  7
3736  6
3737  12
3738  6
3739  12
3740  11
3741  6
3742  12
3743  3
3744  7
3745  10
3746  7
3747  8
3748  7
3749  8
3750  6
3751  10
3752  14
3753  10
3754  7
3755  9
3756  3
3757  8
3758  6
3759  7
3760  11
3761  10
3762  7
3763  12
3764  6
3765  7
3766  9
3767  5
3768  9
3769  11
3770  13
3771  13
3772  11
3773  7
3774  4
3775  11
3776  6
3777  9
3778  6
3779  11
3780  10
3781  3
3782  10
3783  3
3784  6
3785  15
3786  5
3787  7
3788  10
3789  9
3790  5
3791  6
3792  10
3793  3
3794  5
3795  8
3796  5
3797  5
3798  5
3799  11
3800  7
3801  9
3802  9
3803  7
3804  8
3805  12
3806  11
3807  8
3808  12
3809  2
3810  5
3811  12
3812  9
3813  4
3814  5
3815  8
3816  11
3817  4
3818  8
3819  9
3820  8
3821  10
3822  4
3823  14
3824  11
3825  5
3826  4
3827  7
3828  3
3829  8
3830  10
3831  7
3832  12
3833  5
3834  4
3835  13
3836  9
3837  4
3838  7
3839  6
3840  0
3841  0
3842  0
3843  0
3844  0
3845  0
3846  0
3847  0
3848  0
3849  0
3850  0
3851  0
3852  0
3853  0
3854  0
3855  0
3856  0
3857  0
3858  0
3859  0
3860  0
3861  0
3862  0
3863  0
3864  0
3865  0
3866  0
3867  0
3868  0
3869  0
3870  0
3871  0
3872  0
3873  0
3874  0
3875  0
3876  0
3877  0
3878  0
3879  0
3880  0
3881  0
3882  0
3883  0
3884  0
3885  0
3886  0
3887  0
3888  0
3889  0
3890  0
3891  0
3892  0
3893  0
3894  0
3895  0
3896  0
3897  0
3898  0
3899  0
3900  0
3901  0
3902  0
3903  0
3904  0
3905  0
3906  0
3907  0
3908  0
3909  0
3910  0
3911  0
3912  0
3913  0
3914  0
3915  0
3916  0
3917  0
3918  0
3919  0
3920  0
3921  0
3922  0
3923  0
3924  0
3925  0
3926  0
3927  0
3928  0
3929  0
3930  0
3931  0
3932  0
3933  0
3934  0
3935  0
3936  0
3937  0
3938  0
3939  0
3940  0
3941  0
3942  0
3943  0
3944  0
3945  0
3946  0
3947  0
3948  0
3949  0
3950  0
3951  0
3952  0
3953  0
3954  0
3955  0
3956  0
3957  0
3958  0
3959  0
3960  0
3961  0
3962  0
3963  0
3964  0
3965  0
3966  0
3967  0
3968  0
3969  0
3970  0
3971  0
3972  0
3973  0
3974  0
3975  0
3976  0
3977  0
3978  0
3979  0
3980  0
3981  0
3982  0
3983  0
3984  0
3985  0
3986  0
3987  0
3988  0
3989  0
3990  0
3991  0
3992  0
3993  0
3994  0
3995  0
3996  0
3997  0
3998  0
3999  0
4000  0
4001  0
4002  0
4003  0
4004  0
4005  0
4006  0
4007  0
4008  0
4009  0
4010  0
4011  0
4012  0
4013  0
4014  0
4015  0
4016  0
4017  0
4018  0
4019  0
4020  0
4021  0
4022  0
4023  0
4024  0
4025  0
4026  0
4027  0
4028  0
4029  0
4030  0
4031  0
4032  0
4033  0
4034  0
4035  0
4036  0
4037  0
4038  0
4039  0
4040  0
4041  0
4042  0
4043  0
4044  0
4045  0
4046  0
4047  0
4048  0
4049  0
4050  0
4051  0
4052  0
4053  0
4054  0
4055  0
4056  0
4057  0
4058  0
4059  0
4060  0
4061  0
4062  0
4063  0
4064  0
4065  0
4066  0
4067  0
4068  0
4069  0
4070  0
4071  0
4072  0
4073  0
4074  0
4075  0
4076  0
4077  0
4078  0
4079  0
4080  0
4081  0
4082  0
4083  0
4084  0
4085  0
4086  0
4087  0
4088  0
4089  0
4090  0
4091  0
4092  0
4093  0
4094  0
4095  0
