0  0
1  0
2  0
3  0
4  0
5  0
6  0
7  0
8  0
9  0
10  0
11  0
12  0
13  0
14  0
15  0
16  0
17  0
18  0
19  0
20  0
21  0
22  0
23  0
24  0
25  0
26  0
27  0
28  0
29  0
30  0
31  0
32  0
33  0
34  0
35  0
36  0
37  0
38  0
39  0
40  0
41  0
42  0
43  0
44  0
45  0
46  0
47  0
48  0
49  0
50  0
51  0
52  0
53  0
54  0
55  0
56  0
57  0
58  0
59  0
60  0
61  0
62  0
63  0
64  0
65  0
66  0
67  0
68  0
69  0
70  0
71  0
72  0
73  0
74  0
75  0
76  0
77  0
78  0
79  0
80  0
81  0
82  0
83  0
84  0
85  0
86  0
87  0
88  0
89  0
90  0
91  0
92  0
93  0
94  0
95  0
96  0
97  0
98  0
99  0
100  0
101  0
102  0
103  0
104  0
105  0
106  0
107  0
108  0
109  0
110  0
111  0
112  0
113  0
114  0
115  0
116  0
117  0
118  0
119  0
120  0
121  0
122  0
123  0
124  0
125  0
126  0
127  0
128  0
129  0
130  0
131  0
132  0
133  0
134  0
135  0
136  0
137  0
138  0
139  0
140  0
141  0
142  0
143  0
144  0
145  0
146  0
147  0
148  0
149  0
150  0
151  0
152  0
153  0
154  0
155  0
156  0
157  0
158  0
159  0
160  0
161  0
162  0
163  0
164  0
165  0
166  0
167  0
168  0
169  0
170  0
171  0
172  0
173  0
174  0
175  0
176  0
177  0
178  0
179  0
180  0
181  0
182  0
183  0
184  0
185  0
186  0
187  0
188  0
189  0
190  0
191  0
192  0
193  0
194  0
195  0
196  0
197  0
198  0
199  0
200  0
201  0
202  0
203  0
204  0
205  0
206  0
207  0
208  0
209  0
210  0
211  0
212  0
213  0
214  0
215  0
216  0
217  0
218  0
219  0
220  0
221  0
222  0
223  0
224  0
225  0
226  0
227  0
228  0
229  0
230  0
231  0
232  0
233  0
234  0
235  0
236  0
237  0
238  0
239  0
240  0
241  0
242  0
243  0
244  0
245  0
246  0
247  0
248  0
249  0
250  0
251  0
252  0
253  0
254  0
255  0
256  0
257  0
258  0
259  0
260  0
261  0
262  0
263  0
264  0
265  0
266  0
267  0
268  0
269  0
270  0
271  0
272  0
273  0
274  0
275  0
276  0
277  0
278  0
279  0
280  0
281  0
282  0
283  0
284  0
285  0
286  0
287  0
288  0
289  0
290  0
291  0
292  0
293  0
294  0
295  0
296  0
297  0
298  0
299  0
300  0
301  0
302  0
303  0
304  0
305  0
306  0
307  0
308  0
309  0
310  0
311  0
312  0
313  0
314  0
315  0
316  0
317  0
318  0
319  0
320  0
321  0
322  0
323  0
324  0
325  0
326  0
327  0
328  0
329  0
330  0
331  0
332  0
333  0
334  0
335  0
336  0
337  0
338  0
339  0
340  0
341  0
342  0
343  0
344  0
345  0
346  0
347  0
348  0
349  0
350  0
351  0
352  0
353  0
354  0
355  0
356  0
357  0
358  0
359  0
360  0
361  0
362  0
363  0
364  0
365  0
366  0
367  0
368  0
369  0
370  0
371  0
372  0
373  0
374  0
375  0
376  0
377  0
378  0
379  0
380  0
381  0
382  0
383  0
384  0
385  0
386  0
387  0
388  0
389  0
390  0
391  0
392  0
393  0
394  0
395  0
396  0
397  0
398  0
399  0
400  0
401  0
402  0
403  0
404  0
405  0
406  0
407  0
408  0
409  0
410  0
411  0
412  0
413  0
414  0
415  0
416  0
417  0
418  0
419  0
420  0
421  0
422  0
423  0
424  0
425  0
426  0
427  0
428  0
429  0
430  0
431  0
432  0
433  0
434  0
435  0
436  0
437  0
438  0
439  0
440  0
441  0
442  0
443  0
444  0
445  0
446  0
447  0
448  0
449  0
450  0
451  0
452  0
453  0
454  0
455  0
456  0
457  0
458  0
459  0
460  0
461  0
462  0
463  0
464  0
465  0
466  0
467  0
468  0
469  0
470  0
471  0
472  0
473  0
474  0
475  0
476  0
477  0
478  0
479  0
480  0
481  0
482  0
483  0
484  0
485  0
486  0
487  0
488  0
489  0
490  0
491  0
492  0
493  0
494  0
495  0
496  0
497  0
498  0
499  0
500  0
501  0
502  0
503  0
504  0
505  0
506  0
507  0
508  0
509  0
510  0
511  0
512  0
513  0
514  0
515  0
516  0
517  0
518  0
519  0
520  0
521  0
522  0
523  0
524  0
525  0
526  0
527  0
528  0
529  0
530  0
531  0
532  0
533  0
534  0
535  0
536  0
537  0
538  0
539  0
540  0
541  0
542  0
543  0
544  0
545  0
546  0
547  0
548  0
549  0
550  0
551  0
552  0
553  0
554  0
555  0
556  0
557  0
558  0
559  0
560  0
561  0
562  0
563  0
564  0
565  0
566  0
567  0
568  0
569  0
570  0
571  0
572  0
573  0
574  0
575  0
576  0
577  0
578  0
579  0
580  0
581  0
582  0
583  0
584  0
585  0
586  0
587  0
588  0
589  0
590  0
591  0
592  0
593  0
594  0
595  0
596  0
597  0
598  0
599  0
600  0
601  0
602  0
603  0
604  0
605  0
606  0
607  0
608  0
609  0
610  0
611  0
612  0
613  0
614  0
615  0
616  0
617  0
618  0
619  0
620  0
621  0
622  0
623  0
624  0
625  0
626  0
627  0
628  0
629  0
630  0
631  0
632  0
633  0
634  0
635  0
636  0
637  0
638  0
639  0
640  0
641  0
642  0
643  0
644  0
645  0
646  0
647  0
648  0
649  0
650  0
651  0
652  0
653  0
654  0
655  0
656  0
657  0
658  0
659  0
660  0
661  0
662  0
663  0
664  0
665  0
666  0
667  0
668  0
669  0
670  0
671  0
672  0
673  0
674  0
675  0
676  0
677  0
678  0
679  0
680  0
681  0
682  0
683  0
684  0
685  0
686  0
687  0
688  0
689  0
690  0
691  0
692  0
693  0
694  0
695  0
696  0
697  0
698  0
699  0
700  0
701  0
702  0
703  0
704  0
705  0
706  0
707  0
708  0
709  0
710  0
711  0
712  0
713  0
714  0
715  0
716  0
717  0
718  0
719  0
720  0
721  0
722  0
723  0
724  0
725  0
726  0
727  0
728  0
729  0
730  0
731  0
732  0
733  0
734  0
735  0
736  0
737  0
738  0
739  0
740  0
741  0
742  0
743  0
744  0
745  0
746  0
747  0
748  0
749  0
750  0
751  0
752  0
753  0
754  0
755  0
756  0
757  0
758  0
759  0
760  0
761  0
762  0
763  0
764  0
765  0
766  0
767  0
768  0
769  0
770  0
771  0
772  0
773  0
774  0
775  0
776  0
777  0
778  0
779  0
780  0
781  0
782  0
783  0
784  0
785  0
786  0
787  0
788  0
789  0
790  0
791  0
792  0
793  0
794  0
795  0
796  0
797  0
798  0
799  0
800  0
801  0
802  0
803  0
804  0
805  0
806  0
807  0
808  0
809  0
810  0
811  0
812  0
813  0
814  0
815  0
816  0
817  0
818  0
819  0
820  0
821  0
822  0
823  0
824  0
825  0
826  0
827  0
828  0
829  0
830  0
831  0
832  0
833  0
834  0
835  0
836  0
837  0
838  0
839  0
840  0
841  0
842  0
843  0
844  0
845  0
846  0
847  0
848  0
849  0
850  0
851  0
852  0
853  0
854  0
855  0
856  0
857  0
858  0
859  0
860  0
861  0
862  0
863  0
864  0
865  0
866  0
867  0
868  0
869  0
870  0
871  0
872  0
873  0
874  0
875  0
876  0
877  0
878  0
879  0
880  0
881  0
882  0
883  0
884  0
885  0
886  0
887  0
888  0
889  0
890  0
891  0
892  0
893  0
894  0
895  0
896  0
897  0
898  0
899  0
900  0
901  0
902  0
903  0
904  0
905  0
906  0
907  0
908  0
909  0
910  0
911  0
912  0
913  0
914  0
915  0
916  0
917  0
918  0
919  0
920  0
921  0
922  0
923  0
924  0
925  0
926  0
927  0
928  0
929  0
930  0
931  0
932  0
933  0
934  0
935  0
936  0
937  0
938  0
939  0
940  0
941  0
942  0
943  0
944  0
945  0
946  0
947  0
948  0
949  0
950  0
951  0
952  0
953  0
954  0
955  0
956  0
957  0
958  0
959  0
960  0
961  0
962  0
963  0
964  0
965  0
966  0
967  0
968  0
969  0
970  0
971  0
972  0
973  0
974  0
975  0
976  0
977  0
978  0
979  0
980  0
981  0
982  0
983  0
984  0
985  0
986  0
987  0
988  0
989  0
990  0
991  0
992  0
993  0
994  0
995  0
996  0
997  0
998  0
999  0
1000  0
1001  0
1002  0
1003  0
1004  0
1005  0
1006  0
1007  0
1008  0
1009  0
1010  0
1011  0
1012  0
1013  0
1014  0
1015  0
1016  0
1017  0
1018  0
1019  0
1020  0
1021  0
1022  0
1023  0
1024  0
1025  0
1026  0
1027  0
1028  0
1029  0
1030  0
1031  0
1032  0
1033  0
1034  0
1035  0
1036  0
1037  0
1038  0
1039  0
1040  0
1041  0
1042  0
1043  0
1044  0
1045  0
1046  0
1047  0
1048  0
1049  0
1050  0
1051  0
1052  0
1053  0
1054  0
1055  0
1056  0
1057  0
1058  0
1059  0
1060  0
1061  0
1062  0
1063  0
1064  0
1065  0
1066  0
1067  0
1068  0
1069  0
1070  0
1071  0
1072  0
1073  0
1074  0
1075  0
1076  0
1077  0
1078  0
1079  0
1080  0
1081  0
1082  0
1083  0
1084  0
1085  0
1086  0
1087  0
1088  0
1089  0
1090  0
1091  0
1092  0
1093  0
1094  0
1095  0
1096  0
1097  0
1098  0
1099  0
1100  0
1101  0
1102  0
1103  0
1104  0
1105  0
1106  0
1107  0
1108  0
1109  0
1110  0
1111  0
1112  0
1113  0
1114  0
1115  0
1116  0
1117  0
1118  0
1119  0
1120  0
1121  0
1122  0
1123  0
1124  0
1125  0
1126  0
1127  0
1128  0
1129  0
1130  0
1131  0
1132  0
1133  0
1134  0
1135  0
1136  0
1137  0
1138  0
1139  0
1140  0
1141  0
1142  0
1143  0
1144  0
1145  0
1146  0
1147  0
1148  0
1149  0
1150  0
1151  0
1152  0
1153  0
1154  0
1155  0
1156  0
1157  0
1158  0
1159  0
1160  0
1161  0
1162  0
1163  0
1164  0
1165  0
1166  0
1167  0
1168  0
1169  0
1170  0
1171  0
1172  0
1173  0
1174  0
1175  0
1176  0
1177  0
1178  0
1179  0
1180  0
1181  0
1182  0
1183  0
1184  0
1185  0
1186  0
1187  0
1188  0
1189  0
1190  0
1191  0
1192  0
1193  0
1194  0
1195  0
1196  0
1197  0
1198  0
1199  0
1200  0
1201  0
1202  0
1203  0
1204  0
1205  0
1206  0
1207  0
1208  0
1209  0
1210  0
1211  0
1212  0
1213  0
1214  0
1215  0
1216  0
1217  0
1218  0
1219  0
1220  0
1221  0
1222  0
1223  0
1224  0
1225  0
1226  0
1227  0
1228  0
1229  0
1230  0
1231  0
1232  0
1233  0
1234  0
1235  0
1236  0
1237  0
1238  0
1239  0
1240  0
1241  0
1242  0
1243  0
1244  0
1245  0
1246  0
1247  0
1248  0
1249  0
1250  0
1251  0
1252  0
1253  0
1254  0
1255  0
1256  0
1257  0
1258  0
1259  0
1260  0
1261  0
1262  0
1263  0
1264  0
1265  0
1266  0
1267  0
1268  0
1269  0
1270  0
1271  0
1272  0
1273  0
1274  0
1275  0
1276  0
1277  0
1278  0
1279  0
1280  0
1281  0
1282  0
1283  0
1284  0
1285  0
1286  0
1287  0
1288  0
1289  0
1290  0
1291  0
1292  0
1293  0
1294  0
1295  0
1296  0
1297  0
1298  0
1299  0
1300  0
1301  0
1302  0
1303  0
1304  0
1305  0
1306  0
1307  0
1308  0
1309  0
1310  0
1311  0
1312  0
1313  0
1314  0
1315  0
1316  0
1317  0
1318  0
1319  0
1320  0
1321  0
1322  0
1323  0
1324  0
1325  0
1326  0
1327  0
1328  0
1329  0
1330  0
1331  0
1332  0
1333  0
1334  0
1335  0
1336  0
1337  0
1338  0
1339  0
1340  0
1341  0
1342  0
1343  0
1344  0
1345  0
1346  0
1347  0
1348  0
1349  0
1350  0
1351  0
1352  0
1353  0
1354  0
1355  0
1356  0
1357  0
1358  0
1359  0
1360  0
1361  0
1362  0
1363  0
1364  0
1365  0
1366  0
1367  0
1368  0
1369  0
1370  0
1371  0
1372  0
1373  0
1374  0
1375  0
1376  0
1377  0
1378  0
1379  0
1380  0
1381  0
1382  0
1383  0
1384  0
1385  0
1386  0
1387  0
1388  0
1389  0
1390  0
1391  0
1392  0
1393  0
1394  0
1395  0
1396  0
1397  0
1398  0
1399  0
1400  0
1401  0
1402  0
1403  0
1404  0
1405  0
1406  0
1407  0
1408  0
1409  0
1410  0
1411  0
1412  0
1413  0
1414  0
1415  0
1416  0
1417  0
1418  0
1419  0
1420  0
1421  0
1422  0
1423  0
1424  0
1425  0
1426  0
1427  0
1428  0
1429  0
1430  0
1431  0
1432  0
1433  0
1434  0
1435  0
1436  0
1437  0
1438  0
1439  0
1440  0
1441  0
1442  0
1443  0
1444  0
1445  0
1446  0
1447  0
1448  0
1449  0
1450  0
1451  0
1452  0
1453  0
1454  0
1455  0
1456  0
1457  0
1458  0
1459  0
1460  0
1461  0
1462  0
1463  0
1464  0
1465  0
1466  0
1467  0
1468  0
1469  0
1470  0
1471  0
1472  0
1473  0
1474  0
1475  0
1476  0
1477  0
1478  0
1479  0
1480  0
1481  0
1482  0
1483  0
1484  0
1485  0
1486  0
1487  0
1488  0
1489  0
1490  0
1491  0
1492  0
1493  0
1494  0
1495  0
1496  0
1497  0
1498  0
1499  0
1500  0
1501  0
1502  0
1503  0
1504  0
1505  0
1506  0
1507  0
1508  0
1509  0
1510  0
1511  0
1512  0
1513  0
1514  0
1515  0
1516  0
1517  0
1518  0
1519  0
1520  0
1521  0
1522  0
1523  0
1524  0
1525  0
1526  0
1527  0
1528  0
1529  0
1530  0
1531  0
1532  0
1533  0
1534  0
1535  0
1536  0
1537  0
1538  0
1539  0
1540  0
1541  0
1542  0
1543  0
1544  0
1545  0
1546  0
1547  0
1548  0
1549  0
1550  0
1551  0
1552  0
1553  0
1554  0
1555  0
1556  0
1557  0
1558  0
1559  0
1560  0
1561  0
1562  0
1563  0
1564  0
1565  0
1566  0
1567  0
1568  0
1569  0
1570  0
1571  0
1572  0
1573  0
1574  0
1575  0
1576  0
1577  0
1578  0
1579  0
1580  0
1581  0
1582  0
1583  0
1584  0
1585  0
1586  0
1587  0
1588  0
1589  0
1590  0
1591  0
1592  0
1593  0
1594  0
1595  0
1596  0
1597  1
1598  3
1599  14
1600  36
1601  142
1602  374
1603  914
1604  1456
1605  1996
1606  2276
1607  2511
1608  2593
1609  2843
1610  2684
1611  2854
1612  2913
1613  2917
1614  2978
1615  3110
1616  3115
1617  3118
1618  3117
1619  3098
1620  3026
1621  3170
1622  3067
1623  3210
1624  3158
1625  3070
1626  3130
1627  3015
1628  2951
1629  2830
1630  2829
1631  2765
1632  2695
1633  2764
1634  2637
1635  2606
1636  2461
1637  2406
1638  2237
1639  2215
1640  2177
1641  2046
1642  1984
1643  1886
1644  1811
1645  1784
1646  1699
1647  1594
1648  1605
1649  1492
1650  1468
1651  1370
1652  1256
1653  1267
1654  1166
1655  1140
1656  1069
1657  1060
1658  1032
1659  964
1660  910
1661  833
1662  858
1663  746
1664  727
1665  706
1666  680
1667  657
1668  631
1669  603
1670  566
1671  573
1672  502
1673  520
1674  552
1675  505
1676  448
1677  439
1678  371
1679  382
1680  351
1681  367
1682  346
1683  342
1684  283
1685  276
1686  263
1687  276
1688  245
1689  249
1690  243
1691  208
1692  229
1693  187
1694  219
1695  214
1696  214
1697  194
1698  167
1699  181
1700  154
1701  149
1702  144
1703  124
1704  151
1705  126
1706  125
1707  119
1708  133
1709  117
1710  116
1711  87
1712  98
1713  96
1714  93
1715  105
1716  99
1717  75
1718  74
1719  92
1720  73
1721  68
1722  59
1723  68
1724  67
1725  70
1726  63
1727  56
1728  51
1729  55
1730  41
1731  61
1732  61
1733  52
1734  56
1735  56
1736  52
1737  54
1738  44
1739  40
1740  45
1741  42
1742  37
1743  40
1744  43
1745  47
1746  30
1747  32
1748  48
1749  32
1750  30
1751  35
1752  37
1753  20
1754  32
1755  29
1756  29
1757  31
1758  36
1759  27
1760  38
1761  22
1762  31
1763  26
1764  27
1765  28
1766  27
1767  26
1768  29
1769  34
1770  25
1771  16
1772  18
1773  15
1774  16
1775  20
1776  18
1777  33
1778  31
1779  18
1780  24
1781  24
1782  22
1783  22
1784  16
1785  21
1786  25
1787  19
1788  21
1789  21
1790  15
1791  19
1792  27
1793  23
1794  19
1795  21
1796  21
1797  22
1798  19
1799  23
1800  15
1801  27
1802  23
1803  22
1804  20
1805  20
1806  21
1807  23
1808  16
1809  26
1810  29
1811  24
1812  22
1813  32
1814  26
1815  25
1816  27
1817  24
1818  28
1819  21
1820  30
1821  19
1822  26
1823  21
1824  34
1825  34
1826  27
1827  36
1828  34
1829  31
1830  31
1831  45
1832  26
1833  29
1834  37
1835  33
1836  34
1837  32
1838  41
1839  42
1840  35
1841  38
1842  37
1843  46
1844  34
1845  49
1846  48
1847  52
1848  44
1849  34
1850  45
1851  50
1852  42
1853  47
1854  38
1855  55
1856  47
1857  48
1858  48
1859  61
1860  63
1861  61
1862  66
1863  64
1864  62
1865  52
1866  50
1867  66
1868  71
1869  71
1870  64
1871  72
1872  76
1873  67
1874  65
1875  80
1876  65
1877  71
1878  73
1879  66
1880  68
1881  81
1882  65
1883  83
1884  64
1885  88
1886  77
1887  81
1888  87
1889  79
1890  82
1891  73
1892  73
1893  69
1894  88
1895  89
1896  98
1897  90
1898  94
1899  106
1900  76
1901  85
1902  101
1903  80
1904  87
1905  88
1906  125
1907  109
1908  113
1909  99
1910  101
1911  115
1912  102
1913  123
1914  88
1915  124
1916  114
1917  99
1918  112
1919  111
1920  115
1921  119
1922  115
1923  119
1924  126
1925  118
1926  137
1927  133
1928  109
1929  111
1930  120
1931  137
1932  131
1933  131
1934  111
1935  131
1936  129
1937  130
1938  127
1939  120
1940  124
1941  133
1942  126
1943  154
1944  146
1945  132
1946  141
1947  137
1948  126
1949  142
1950  146
1951  136
1952  140
1953  126
1954  120
1955  129
1956  139
1957  126
1958  158
1959  128
1960  135
1961  145
1962  135
1963  130
1964  159
1965  152
1966  126
1967  151
1968  133
1969  170
1970  144
1971  144
1972  146
1973  157
1974  170
1975  134
1976  134
1977  150
1978  144
1979  153
1980  167
1981  155
1982  148
1983  166
1984  151
1985  149
1986  186
1987  173
1988  160
1989  157
1990  183
1991  154
1992  179
1993  168
1994  154
1995  159
1996  156
1997  130
1998  169
1999  165
2000  166
2001  145
2002  157
2003  160
2004  148
2005  156
2006  153
2007  168
2008  173
2009  154
2010  157
2011  167
2012  167
2013  165
2014  146
2015  132
2016  163
2017  156
2018  148
2019  152
2020  156
2021  168
2022  150
2023  170
2024  153
2025  154
2026  150
2027  167
2028  167
2029  155
2030  148
2031  169
2032  156
2033  151
2034  172
2035  151
2036  165
2037  136
2038  159
2039  150
2040  154
2041  162
2042  169
2043  150
2044  147
2045  132
2046  149
2047  151
2048  147
2049  133
2050  146
2051  145
2052  147
2053  150
2054  125
2055  148
2056  156
2057  151
2058  142
2059  147
2060  131
2061  139
2062  154
2063  144
2064  127
2065  130
2066  139
2067  156
2068  138
2069  138
2070  143
2071  139
2072  152
2073  148
2074  134
2075  157
2076  105
2077  113
2078  136
2079  162
2080  144
2081  130
2082  136
2083  138
2084  135
2085  150
2086  134
2087  114
2088  138
2089  126
2090  112
2091  135
2092  133
2093  135
2094  105
2095  139
2096  122
2097  140
2098  131
2099  134
2100  132
2101  115
2102  124
2103  119
2104  124
2105  148
2106  133
2107  121
2108  127
2109  128
2110  123
2111  139
2112  108
2113  116
2114  106
2115  120
2116  118
2117  130
2118  123
2119  114
2120  127
2121  127
2122  123
2123  127
2124  113
2125  128
2126  122
2127  127
2128  107
2129  112
2130  103
2131  111
2132  107
2133  124
2134  109
2135  125
2136  110
2137  115
2138  111
2139  115
2140  90
2141  113
2142  101
2143  103
2144  91
2145  103
2146  97
2147  92
2148  115
2149  104
2150  99
2151  90
2152  104
2153  107
2154  95
2155  97
2156  120
2157  106
2158  84
2159  103
2160  107
2161  91
2162  93
2163  88
2164  85
2165  76
2166  95
2167  101
2168  98
2169  92
2170  100
2171  101
2172  92
2173  78
2174  93
2175  79
2176  91
2177  75
2178  91
2179  71
2180  89
2181  94
2182  104
2183  94
2184  78
2185  87
2186  79
2187  91
2188  95
2189  100
2190  98
2191  84
2192  92
2193  71
2194  72
2195  90
2196  74
2197  86
2198  82
2199  71
2200  89
2201  74
2202  75
2203  79
2204  70
2205  60
2206  66
2207  67
2208  93
2209  69
2210  71
2211  83
2212  76
2213  71
2214  64
2215  82
2216  71
2217  76
2218  88
2219  56
2220  62
2221  79
2222  63
2223  71
2224  72
2225  71
2226  69
2227  61
2228  78
2229  72
2230  66
2231  71
2232  58
2233  58
2234  62
2235  62
2236  74
2237  71
2238  56
2239  57
2240  74
2241  64
2242  64
2243  69
2244  72
2245  57
2246  64
2247  58
2248  49
2249  71
2250  49
2251  65
2252  48
2253  61
2254  48
2255  49
2256  63
2257  61
2258  58
2259  50
2260  61
2261  62
2262  59
2263  62
2264  43
2265  54
2266  46
2267  50
2268  43
2269  55
2270  47
2271  47
2272  60
2273  59
2274  51
2275  67
2276  61
2277  55
2278  50
2279  55
2280  47
2281  40
2282  58
2283  64
2284  47
2285  32
2286  39
2287  55
2288  38
2289  46
2290  48
2291  49
2292  54
2293  39
2294  41
2295  43
2296  42
2297  47
2298  37
2299  43
2300  45
2301  49
2302  32
2303  46
2304  47
2305  41
2306  46
2307  47
2308  36
2309  36
2310  40
2311  35
2312  51
2313  34
2314  42
2315  37
2316  39
2317  32
2318  34
2319  50
2320  50
2321  46
2322  43
2323  33
2324  41
2325  31
2326  33
2327  46
2328  40
2329  41
2330  33
2331  35
2332  32
2333  35
2334  31
2335  37
2336  31
2337  35
2338  28
2339  32
2340  23
2341  25
2342  28
2343  30
2344  37
2345  28
2346  34
2347  26
2348  30
2349  31
2350  32
2351  30
2352  32
2353  25
2354  34
2355  32
2356  27
2357  28
2358  32
2359  39
2360  36
2361  21
2362  21
2363  39
2364  35
2365  30
2366  38
2367  22
2368  32
2369  20
2370  29
2371  23
2372  26
2373  32
2374  33
2375  24
2376  37
2377  35
2378  32
2379  29
2380  24
2381  28
2382  26
2383  25
2384  22
2385  22
2386  28
2387  33
2388  31
2389  27
2390  26
2391  29
2392  20
2393  25
2394  32
2395  16
2396  24
2397  28
2398  25
2399  22
2400  22
2401  23
2402  29
2403  30
2404  26
2405  18
2406  24
2407  18
2408  28
2409  28
2410  28
2411  29
2412  23
2413  23
2414  24
2415  21
2416  26
2417  28
2418  27
2419  19
2420  27
2421  18
2422  21
2423  22
2424  30
2425  11
2426  19
2427  15
2428  24
2429  11
2430  24
2431  17
2432  13
2433  15
2434  26
2435  20
2436  20
2437  23
2438  22
2439  22
2440  25
2441  13
2442  15
2443  20
2444  26
2445  19
2446  18
2447  19
2448  21
2449  15
2450  23
2451  19
2452  19
2453  13
2454  12
2455  22
2456  11
2457  13
2458  16
2459  15
2460  20
2461  18
2462  14
2463  9
2464  17
2465  21
2466  13
2467  13
2468  14
2469  13
2470  19
2471  11
2472  19
2473  20
2474  12
2475  20
2476  18
2477  11
2478  12
2479  24
2480  18
2481  11
2482  18
2483  15
2484  19
2485  10
2486  14
2487  10
2488  15
2489  21
2490  12
2491  9
2492  9
2493  18
2494  15
2495  18
2496  12
2497  10
2498  13
2499  10
2500  19
2501  19
2502  21
2503  13
2504  9
2505  16
2506  16
2507  11
2508  15
2509  9
2510  11
2511  7
2512  15
2513  16
2514  13
2515  9
2516  14
2517  9
2518  16
2519  16
2520  13
2521  8
2522  11
2523  12
2524  20
2525  15
2526  7
2527  12
2528  8
2529  10
2530  18
2531  12
2532  12
2533  6
2534  14
2535  9
2536  8
2537  19
2538  6
2539  12
2540  5
2541  11
2542  13
2543  8
2544  13
2545  10
2546  6
2547  11
2548  12
2549  7
2550  8
2551  14
2552  7
2553  8
2554  12
2555  7
2556  11
2557  15
2558  7
2559  8
2560  10
2561  10
2562  9
2563  7
2564  10
2565  10
2566  17
2567  12
2568  9
2569  14
2570  11
2571  13
2572  6
2573  10
2574  12
2575  13
2576  12
2577  8
2578  10
2579  10
2580  12
2581  5
2582  6
2583  6
2584  9
2585  11
2586  13
2587  5
2588  5
2589  8
2590  10
2591  14
2592  12
2593  11
2594  8
2595  4
2596  5
2597  10
2598  9
2599  7
2600  6
2601  6
2602  9
2603  4
2604  4
2605  7
2606  10
2607  7
2608  5
2609  7
2610  9
2611  12
2612  11
2613  12
2614  11
2615  8
2616  8
2617  5
2618  2
2619  6
2620  8
2621  6
2622  7
2623  11
2624  5
2625  8
2626  7
2627  11
2628  14
2629  13
2630  8
2631  8
2632  7
2633  4
2634  11
2635  4
2636  2
2637  9
2638  4
2639  12
2640  2
2641  8
2642  9
2643  9
2644  9
2645  8
2646  5
2647  10
2648  7
2649  4
2650  8
2651  7
2652  6
2653  5
2654  6
2655  6
2656  6
2657  10
2658  9
2659  4
2660  8
2661  8
2662  8
2663  10
2664  6
2665  3
2666  6
2667  13
2668  5
2669  8
2670  4
2671  6
2672  6
2673  3
2674  4
2675  8
2676  6
2677  8
2678  5
2679  7
2680  11
2681  9
2682  6
2683  4
2684  9
2685  9
2686  5
2687  4
2688  8
2689  8
2690  5
2691  6
2692  6
2693  1
2694  5
2695  5
2696  3
2697  5
2698  5
2699  7
2700  6
2701  1
2702  5
2703  4
2704  5
2705  9
2706  9
2707  11
2708  7
2709  5
2710  10
2711  2
2712  5
2713  7
2714  2
2715  8
2716  7
2717  4
2718  4
2719  2
2720  7
2721  4
2722  11
2723  4
2724  5
2725  6
2726  5
2727  2
2728  3
2729  5
2730  2
2731  9
2732  7
2733  1
2734  4
2735  8
2736  4
2737  5
2738  2
2739  3
2740  5
2741  2
2742  5
2743  1
2744  5
2745  5
2746  5
2747  5
2748  9
2749  8
2750  1
2751  8
2752  5
2753  8
2754  5
2755  7
2756  4
2757  0
2758  5
2759  6
2760  3
2761  7
2762  6
2763  2
2764  5
2765  5
2766  5
2767  9
2768  6
2769  3
2770  5
2771  0
2772  9
2773  3
2774  5
2775  4
2776  3
2777  1
2778  3
2779  5
2780  3
2781  2
2782  12
2783  4
2784  1
2785  5
2786  8
2787  5
2788  3
2789  4
2790  4
2791  3
2792  8
2793  8
2794  1
2795  3
2796  5
2797  2
2798  7
2799  5
2800  5
2801  3
2802  3
2803  5
2804  5
2805  1
2806  0
2807  2
2808  4
2809  3
2810  3
2811  4
2812  3
2813  2
2814  1
2815  1
2816  4
2817  3
2818  2
2819  1
2820  5
2821  0
2822  4
2823  4
2824  5
2825  4
2826  4
2827  4
2828  4
2829  3
2830  3
2831  3
2832  2
2833  2
2834  7
2835  6
2836  2
2837  2
2838  5
2839  3
2840  2
2841  3
2842  4
2843  1
2844  3
2845  3
2846  3
2847  2
2848  7
2849  5
2850  4
2851  2
2852  5
2853  1
2854  3
2855  1
2856  1
2857  3
2858  1
2859  3
2860  2
2861  3
2862  2
2863  0
2864  1
2865  4
2866  2
2867  1
2868  3
2869  3
2870  2
2871  5
2872  7
2873  4
2874  5
2875  3
2876  2
2877  2
2878  1
2879  8
2880  6
2881  2
2882  3
2883  3
2884  3
2885  6
2886  1
2887  1
2888  2
2889  3
2890  3
2891  1
2892  3
2893  4
2894  3
2895  4
2896  3
2897  5
2898  1
2899  3
2900  5
2901  4
2902  2
2903  6
2904  0
2905  0
2906  1
2907  3
2908  3
2909  1
2910  1
2911  1
2912  4
2913  1
2914  2
2915  2
2916  2
2917  0
2918  4
2919  1
2920  3
2921  1
2922  2
2923  5
2924  1
2925  0
2926  3
2927  2
2928  5
2929  3
2930  3
2931  5
2932  5
2933  1
2934  3
2935  3
2936  4
2937  2
2938  2
2939  3
2940  2
2941  2
2942  2
2943  1
2944  2
2945  2
2946  3
2947  3
2948  3
2949  2
2950  2
2951  4
2952  3
2953  0
2954  1
2955  8
2956  2
2957  3
2958  3
2959  1
2960  2
2961  2
2962  4
2963  3
2964  2
2965  1
2966  6
2967  5
2968  2
2969  3
2970  1
2971  2
2972  1
2973  1
2974  1
2975  4
2976  1
2977  2
2978  3
2979  4
2980  1
2981  2
2982  4
2983  0
2984  2
2985  2
2986  3
2987  3
2988  0
2989  3
2990  3
2991  2
2992  3
2993  4
2994  4
2995  2
2996  2
2997  3
2998  1
2999  2
3000  0
3001  2
3002  0
3003  3
3004  1
3005  3
3006  1
3007  2
3008  2
3009  1
3010  1
3011  2
3012  3
3013  1
3014  1
3015  0
3016  1
3017  0
3018  3
3019  2
3020  5
3021  4
3022  4
3023  6
3024  5
3025  2
3026  5
3027  1
3028  2
3029  1
3030  5
3031  2
3032  0
3033  0
3034  2
3035  0
3036  2
3037  4
3038  3
3039  2
3040  1
3041  1
3042  3
3043  1
3044  1
3045  0
3046  3
3047  1
3048  3
3049  1
3050  2
3051  4
3052  4
3053  4
3054  6
3055  0
3056  0
3057  3
3058  5
3059  4
3060  3
3061  1
3062  1
3063  1
3064  1
3065  1
3066  2
3067  3
3068  1
3069  1
3070  1
3071  3
3072  3
3073  2
3074  1
3075  3
3076  2
3077  2
3078  3
3079  0
3080  4
3081  3
3082  6
3083  3
3084  2
3085  0
3086  1
3087  1
3088  2
3089  1
3090  1
3091  3
3092  2
3093  2
3094  0
3095  1
3096  4
3097  2
3098  2
3099  2
3100  2
3101  4
3102  1
3103  0
3104  3
3105  4
3106  0
3107  4
3108  1
3109  1
3110  0
3111  1
3112  1
3113  1
3114  0
3115  1
3116  5
3117  1
3118  3
3119  0
3120  0
3121  1
3122  1
3123  1
3124  3
3125  1
3126  1
3127  2
3128  3
3129  3
3130  0
3131  2
3132  0
3133  1
3134  2
3135  0
3136  3
3137  2
3138  3
3139  2
3140  1
3141  3
3142  2
3143  1
3144  2
3145  1
3146  3
3147  3
3148  2
3149  0
3150  3
3151  2
3152  1
3153  0
3154  1
3155  3
3156  3
3157  3
3158  1
3159  0
3160  1
3161  1
3162  1
3163  2
3164  3
3165  2
3166  1
3167  1
3168  0
3169  0
3170  1
3171  1
3172  1
3173  1
3174  3
3175  0
3176  3
3177  2
3178  2
3179  3
3180  1
3181  3
3182  1
3183  1
3184  2
3185  2
3186  0
3187  2
3188  1
3189  1
3190  1
3191  1
3192  2
3193  1
3194  0
3195  2
3196  1
3197  0
3198  3
3199  0
3200  0
3201  3
3202  0
3203  2
3204  1
3205  1
3206  1
3207  4
3208  0
3209  1
3210  1
3211  1
3212  1
3213  0
3214  3
3215  2
3216  2
3217  3
3218  2
3219  1
3220  2
3221  2
3222  1
3223  0
3224  3
3225  0
3226  2
3227  1
3228  0
3229  0
3230  2
3231  0
3232  2
3233  0
3234  1
3235  2
3236  2
3237  1
3238  3
3239  0
3240  0
3241  2
3242  0
3243  0
3244  1
3245  2
3246  0
3247  2
3248  1
3249  2
3250  0
3251  1
3252  1
3253  0
3254  2
3255  0
3256  2
3257  2
3258  2
3259  1
3260  1
3261  1
3262  2
3263  1
3264  3
3265  2
3266  0
3267  1
3268  0
3269  0
3270  1
3271  0
3272  2
3273  1
3274  1
3275  3
3276  0
3277  0
3278  0
3279  1
3280  4
3281  0
3282  3
3283  2
3284  0
3285  1
3286  0
3287  2
3288  2
3289  1
3290  2
3291  1
3292  1
3293  2
3294  0
3295  1
3296  1
3297  3
3298  1
3299  0
3300  2
3301  0
3302  1
3303  1
3304  0
3305  1
3306  1
3307  2
3308  0
3309  4
3310  2
3311  3
3312  1
3313  0
3314  0
3315  2
3316  1
3317  0
3318  2
3319  0
3320  0
3321  1
3322  0
3323  0
3324  1
3325  2
3326  0
3327  0
3328  1
3329  0
3330  1
3331  1
3332  1
3333  0
3334  1
3335  0
3336  2
3337  0
3338  3
3339  1
3340  0
3341  2
3342  0
3343  2
3344  0
3345  0
3346  2
3347  1
3348  1
3349  3
3350  3
3351  0
3352  1
3353  3
3354  0
3355  0
3356  1
3357  1
3358  1
3359  0
3360  3
3361  3
3362  0
3363  0
3364  1
3365  0
3366  2
3367  0
3368  1
3369  2
3370  0
3371  0
3372  0
3373  1
3374  0
3375  1
3376  0
3377  0
3378  1
3379  0
3380  4
3381  0
3382  0
3383  0
3384  0
3385  1
3386  0
3387  0
3388  0
3389  0
3390  0
3391  0
3392  1
3393  0
3394  1
3395  0
3396  1
3397  0
3398  3
3399  0
3400  1
3401  1
3402  0
3403  0
3404  0
3405  0
3406  2
3407  1
3408  1
3409  1
3410  2
3411  2
3412  2
3413  1
3414  0
3415  1
3416  1
3417  0
3418  0
3419  1
3420  1
3421  1
3422  1
3423  1
3424  0
3425  1
3426  1
3427  0
3428  1
3429  0
3430  1
3431  0
3432  3
3433  0
3434  0
3435  1
3436  1
3437  0
3438  0
3439  2
3440  0
3441  0
3442  1
3443  1
3444  0
3445  0
3446  0
3447  1
3448  0
3449  1
3450  3
3451  0
3452  2
3453  1
3454  0
3455  1
3456  1
3457  0
3458  2
3459  1
3460  1
3461  0
3462  1
3463  2
3464  1
3465  2
3466  0
3467  0
3468  0
3469  1
3470  0
3471  2
3472  2
3473  0
3474  0
3475  2
3476  2
3477  0
3478  0
3479  0
3480  1
3481  2
3482  0
3483  0
3484  2
3485  0
3486  0
3487  1
3488  2
3489  2
3490  1
3491  0
3492  2
3493  0
3494  0
3495  0
3496  3
3497  1
3498  0
3499  0
3500  0
3501  0
3502  1
3503  1
3504  1
3505  1
3506  2
3507  0
3508  0
3509  0
3510  1
3511  0
3512  1
3513  1
3514  0
3515  0
3516  1
3517  1
3518  1
3519  0
3520  0
3521  1
3522  1
3523  0
3524  0
3525  0
3526  0
3527  1
3528  1
3529  2
3530  3
3531  1
3532  0
3533  0
3534  0
3535  0
3536  1
3537  1
3538  0
3539  0
3540  0
3541  1
3542  1
3543  1
3544  3
3545  0
3546  2
3547  1
3548  0
3549  1
3550  0
3551  1
3552  0
3553  1
3554  0
3555  0
3556  1
3557  0
3558  1
3559  0
3560  0
3561  0
3562  0
3563  0
3564  0
3565  1
3566  0
3567  0
3568  0
3569  0
3570  0
3571  4
3572  1
3573  2
3574  0
3575  0
3576  0
3577  0
3578  1
3579  0
3580  0
3581  1
3582  0
3583  2
3584  1
3585  1
3586  1
3587  1
3588  0
3589  1
3590  0
3591  1
3592  1
3593  0
3594  0
3595  0
3596  0
3597  0
3598  0
3599  2
3600  0
3601  0
3602  1
3603  0
3604  1
3605  0
3606  1
3607  0
3608  0
3609  1
3610  3
3611  1
3612  0
3613  3
3614  3
3615  1
3616  1
3617  1
3618  1
3619  0
3620  0
3621  1
3622  1
3623  0
3624  0
3625  1
3626  0
3627  3
3628  1
3629  0
3630  0
3631  0
3632  1
3633  0
3634  0
3635  0
3636  0
3637  0
3638  0
3639  3
3640  1
3641  0
3642  1
3643  1
3644  1
3645  0
3646  1
3647  0
3648  0
3649  1
3650  0
3651  1
3652  0
3653  2
3654  1
3655  0
3656  0
3657  0
3658  3
3659  2
3660  1
3661  0
3662  0
3663  0
3664  0
3665  3
3666  1
3667  0
3668  1
3669  0
3670  1
3671  1
3672  1
3673  0
3674  2
3675  0
3676  1
3677  0
3678  0
3679  1
3680  0
3681  0
3682  0
3683  2
3684  0
3685  1
3686  0
3687  0
3688  0
3689  0
3690  1
3691  0
3692  2
3693  0
3694  0
3695  0
3696  0
3697  1
3698  1
3699  1
3700  1
3701  2
3702  0
3703  0
3704  2
3705  0
3706  0
3707  1
3708  1
3709  0
3710  1
3711  0
3712  0
3713  2
3714  1
3715  1
3716  0
3717  0
3718  0
3719  1
3720  1
3721  0
3722  0
3723  0
3724  0
3725  0
3726  1
3727  0
3728  0
3729  1
3730  0
3731  0
3732  0
3733  0
3734  0
3735  0
3736  0
3737  0
3738  0
3739  0
3740  0
3741  0
3742  0
3743  0
3744  0
3745  1
3746  1
3747  0
3748  0
3749  0
3750  1
3751  0
3752  1
3753  0
3754  0
3755  0
3756  1
3757  1
3758  1
3759  1
3760  0
3761  2
3762  0
3763  0
3764  0
3765  0
3766  1
3767  0
3768  1
3769  1
3770  1
3771  0
3772  2
3773  0
3774  0
3775  1
3776  0
3777  2
3778  1
3779  1
3780  1
3781  3
3782  4
3783  0
3784  0
3785  1
3786  0
3787  0
3788  0
3789  1
3790  1
3791  0
3792  1
3793  1
3794  1
3795  0
3796  0
3797  1
3798  1
3799  0
3800  3
3801  1
3802  0
3803  0
3804  0
3805  0
3806  0
3807  2
3808  1
3809  0
3810  1
3811  0
3812  2
3813  0
3814  1
3815  0
3816  0
3817  0
3818  0
3819  1
3820  1
3821  1
3822  0
3823  2
3824  1
3825  0
3826  0
3827  2
3828  2
3829  1
3830  1
3831  0
3832  0
3833  1
3834  0
3835  3
3836  0
3837  1
3838  1
3839  0
3840  0
3841  0
3842  0
3843  0
3844  0
3845  0
3846  0
3847  0
3848  0
3849  0
3850  0
3851  0
3852  0
3853  0
3854  0
3855  0
3856  0
3857  0
3858  0
3859  0
3860  0
3861  0
3862  0
3863  0
3864  0
3865  0
3866  0
3867  0
3868  0
3869  0
3870  0
3871  0
3872  0
3873  0
3874  0
3875  0
3876  0
3877  0
3878  0
3879  0
3880  0
3881  0
3882  0
3883  0
3884  0
3885  0
3886  0
3887  0
3888  0
3889  0
3890  0
3891  0
3892  0
3893  0
3894  0
3895  0
3896  0
3897  0
3898  0
3899  0
3900  0
3901  0
3902  0
3903  0
3904  0
3905  0
3906  0
3907  0
3908  0
3909  0
3910  0
3911  0
3912  0
3913  0
3914  0
3915  0
3916  0
3917  0
3918  0
3919  0
3920  0
3921  0
3922  0
3923  0
3924  0
3925  0
3926  0
3927  0
3928  0
3929  0
3930  0
3931  0
3932  0
3933  0
3934  0
3935  0
3936  0
3937  0
3938  0
3939  0
3940  0
3941  0
3942  0
3943  0
3944  0
3945  0
3946  0
3947  0
3948  0
3949  0
3950  0
3951  0
3952  0
3953  0
3954  0
3955  0
3956  0
3957  0
3958  0
3959  0
3960  0
3961  0
3962  0
3963  0
3964  0
3965  0
3966  0
3967  0
3968  0
3969  0
3970  0
3971  0
3972  0
3973  0
3974  0
3975  0
3976  0
3977  0
3978  0
3979  0
3980  0
3981  0
3982  0
3983  0
3984  0
3985  0
3986  0
3987  0
3988  0
3989  0
3990  0
3991  0
3992  0
3993  0
3994  0
3995  0
3996  0
3997  0
3998  0
3999  0
4000  0
4001  0
4002  0
4003  0
4004  0
4005  0
4006  0
4007  0
4008  0
4009  0
4010  0
4011  0
4012  0
4013  0
4014  0
4015  0
4016  0
4017  0
4018  0
4019  0
4020  0
4021  0
4022  0
4023  0
4024  0
4025  0
4026  0
4027  0
4028  0
4029  0
4030  0
4031  0
4032  0
4033  0
4034  0
4035  0
4036  0
4037  0
4038  0
4039  0
4040  0
4041  0
4042  0
4043  0
4044  0
4045  0
4046  0
4047  0
4048  0
4049  0
4050  0
4051  0
4052  0
4053  0
4054  0
4055  0
4056  0
4057  0
4058  0
4059  0
4060  0
4061  0
4062  0
4063  0
4064  0
4065  0
4066  0
4067  0
4068  0
4069  0
4070  0
4071  0
4072  0
4073  0
4074  0
4075  0
4076  0
4077  0
4078  0
4079  0
4080  0
4081  0
4082  0
4083  0
4084  0
4085  0
4086  0
4087  0
4088  0
4089  0
4090  0
4091  0
4092  0
4093  0
4094  0
4095  0
