0  0
1  0
2  0
3  0
4  0
5  0
6  0
7  0
8  0
9  0
10  0
11  0
12  0
13  0
14  0
15  0
16  0
17  0
18  0
19  0
20  0
21  0
22  0
23  0
24  0
25  0
26  0
27  0
28  0
29  0
30  0
31  0
32  0
33  0
34  0
35  0
36  0
37  0
38  0
39  0
40  0
41  0
42  0
43  0
44  0
45  0
46  0
47  0
48  0
49  0
50  0
51  0
52  0
53  0
54  0
55  0
56  0
57  0
58  0
59  0
60  0
61  0
62  0
63  0
64  0
65  0
66  0
67  0
68  0
69  0
70  0
71  0
72  0
73  0
74  0
75  0
76  0
77  0
78  0
79  0
80  0
81  0
82  0
83  0
84  0
85  0
86  0
87  0
88  0
89  0
90  0
91  0
92  0
93  0
94  0
95  0
96  0
97  0
98  0
99  0
100  0
101  0
102  0
103  0
104  0
105  0
106  0
107  0
108  0
109  0
110  0
111  0
112  0
113  0
114  0
115  0
116  0
117  0
118  0
119  0
120  0
121  0
122  0
123  0
124  0
125  0
126  0
127  0
128  0
129  0
130  0
131  0
132  0
133  0
134  0
135  0
136  0
137  0
138  0
139  0
140  0
141  0
142  0
143  0
144  0
145  0
146  0
147  0
148  0
149  0
150  0
151  0
152  0
153  0
154  0
155  0
156  0
157  0
158  0
159  0
160  0
161  0
162  0
163  0
164  0
165  0
166  0
167  0
168  0
169  0
170  0
171  0
172  0
173  0
174  0
175  0
176  0
177  0
178  0
179  0
180  0
181  0
182  0
183  0
184  0
185  0
186  0
187  0
188  0
189  0
190  0
191  0
192  0
193  0
194  0
195  0
196  0
197  0
198  0
199  0
200  0
201  0
202  0
203  0
204  0
205  0
206  0
207  0
208  0
209  0
210  0
211  0
212  0
213  0
214  0
215  0
216  0
217  0
218  0
219  0
220  0
221  0
222  0
223  0
224  0
225  0
226  0
227  0
228  0
229  0
230  0
231  0
232  0
233  0
234  0
235  0
236  0
237  0
238  0
239  0
240  0
241  0
242  0
243  0
244  0
245  0
246  0
247  0
248  0
249  0
250  0
251  0
252  0
253  0
254  0
255  0
256  0
257  0
258  0
259  0
260  0
261  0
262  0
263  0
264  0
265  0
266  0
267  0
268  0
269  0
270  0
271  0
272  0
273  0
274  0
275  0
276  0
277  0
278  0
279  0
280  0
281  0
282  0
283  0
284  0
285  0
286  0
287  0
288  0
289  0
290  0
291  0
292  0
293  0
294  0
295  0
296  0
297  0
298  0
299  0
300  0
301  0
302  0
303  0
304  0
305  0
306  0
307  0
308  0
309  0
310  0
311  0
312  0
313  0
314  0
315  0
316  0
317  0
318  0
319  0
320  0
321  0
322  0
323  0
324  0
325  0
326  0
327  0
328  0
329  0
330  0
331  0
332  0
333  0
334  0
335  0
336  0
337  0
338  0
339  0
340  0
341  0
342  0
343  0
344  0
345  0
346  0
347  0
348  0
349  0
350  0
351  0
352  0
353  0
354  0
355  0
356  0
357  0
358  0
359  0
360  0
361  0
362  0
363  0
364  0
365  0
366  0
367  0
368  0
369  0
370  0
371  0
372  0
373  0
374  0
375  0
376  0
377  0
378  0
379  0
380  0
381  0
382  0
383  0
384  0
385  0
386  0
387  0
388  0
389  0
390  0
391  0
392  0
393  0
394  0
395  0
396  0
397  0
398  0
399  0
400  0
401  0
402  0
403  0
404  0
405  0
406  0
407  0
408  0
409  0
410  0
411  0
412  0
413  0
414  0
415  0
416  0
417  0
418  0
419  0
420  0
421  0
422  0
423  0
424  0
425  0
426  0
427  0
428  0
429  0
430  0
431  0
432  0
433  0
434  0
435  0
436  0
437  0
438  0
439  0
440  0
441  0
442  0
443  0
444  0
445  0
446  0
447  0
448  0
449  0
450  0
451  0
452  0
453  0
454  0
455  0
456  0
457  0
458  0
459  0
460  0
461  0
462  0
463  0
464  0
465  0
466  0
467  0
468  0
469  0
470  0
471  0
472  0
473  0
474  0
475  0
476  0
477  0
478  0
479  0
480  0
481  0
482  0
483  0
484  0
485  0
486  0
487  0
488  0
489  0
490  0
491  0
492  0
493  0
494  0
495  0
496  0
497  0
498  0
499  0
500  0
501  0
502  0
503  0
504  0
505  0
506  0
507  0
508  0
509  0
510  0
511  0
512  0
513  0
514  0
515  0
516  0
517  0
518  0
519  0
520  0
521  0
522  0
523  0
524  0
525  0
526  0
527  0
528  0
529  0
530  0
531  0
532  0
533  0
534  0
535  0
536  0
537  0
538  0
539  0
540  0
541  0
542  0
543  0
544  0
545  0
546  0
547  0
548  0
549  0
550  0
551  0
552  0
553  0
554  0
555  0
556  0
557  0
558  0
559  0
560  0
561  0
562  0
563  0
564  0
565  0
566  0
567  0
568  0
569  0
570  0
571  0
572  0
573  0
574  0
575  0
576  0
577  0
578  0
579  0
580  0
581  0
582  0
583  0
584  0
585  0
586  0
587  0
588  0
589  0
590  0
591  0
592  0
593  0
594  0
595  0
596  0
597  0
598  0
599  0
600  0
601  0
602  0
603  0
604  0
605  0
606  0
607  0
608  0
609  0
610  0
611  0
612  0
613  0
614  0
615  0
616  0
617  0
618  0
619  0
620  0
621  0
622  0
623  0
624  0
625  0
626  0
627  0
628  0
629  0
630  0
631  0
632  0
633  0
634  0
635  0
636  0
637  0
638  0
639  0
640  0
641  0
642  0
643  0
644  0
645  0
646  0
647  0
648  0
649  0
650  0
651  0
652  0
653  0
654  0
655  0
656  0
657  0
658  0
659  0
660  0
661  0
662  0
663  0
664  0
665  0
666  0
667  0
668  0
669  0
670  0
671  0
672  0
673  0
674  0
675  0
676  0
677  0
678  0
679  0
680  0
681  0
682  0
683  0
684  0
685  0
686  0
687  0
688  0
689  0
690  0
691  0
692  0
693  0
694  0
695  0
696  0
697  0
698  0
699  0
700  0
701  0
702  0
703  0
704  0
705  0
706  0
707  0
708  0
709  0
710  0
711  0
712  0
713  0
714  0
715  0
716  0
717  0
718  0
719  0
720  0
721  0
722  0
723  0
724  0
725  0
726  0
727  0
728  0
729  0
730  0
731  0
732  0
733  0
734  0
735  0
736  0
737  0
738  0
739  0
740  0
741  0
742  0
743  0
744  0
745  0
746  0
747  0
748  0
749  0
750  0
751  0
752  0
753  0
754  0
755  0
756  0
757  0
758  0
759  0
760  0
761  0
762  0
763  0
764  0
765  0
766  0
767  0
768  0
769  0
770  0
771  0
772  0
773  0
774  0
775  0
776  0
777  0
778  0
779  0
780  0
781  0
782  0
783  0
784  0
785  0
786  0
787  0
788  0
789  0
790  0
791  0
792  0
793  0
794  0
795  0
796  0
797  0
798  0
799  0
800  0
801  0
802  0
803  0
804  0
805  0
806  0
807  0
808  0
809  0
810  0
811  0
812  0
813  0
814  0
815  0
816  0
817  0
818  0
819  0
820  0
821  0
822  0
823  0
824  0
825  0
826  0
827  0
828  0
829  0
830  0
831  0
832  0
833  0
834  0
835  0
836  0
837  0
838  0
839  0
840  0
841  0
842  0
843  0
844  0
845  0
846  0
847  0
848  0
849  0
850  0
851  0
852  0
853  0
854  0
855  0
856  0
857  0
858  0
859  0
860  0
861  0
862  0
863  0
864  0
865  0
866  0
867  0
868  0
869  0
870  0
871  0
872  0
873  0
874  0
875  0
876  0
877  0
878  0
879  0
880  0
881  0
882  0
883  0
884  0
885  0
886  0
887  0
888  0
889  0
890  0
891  0
892  0
893  0
894  0
895  0
896  0
897  0
898  0
899  0
900  0
901  0
902  0
903  0
904  0
905  0
906  0
907  0
908  0
909  0
910  0
911  0
912  0
913  0
914  0
915  0
916  0
917  0
918  0
919  0
920  0
921  0
922  0
923  0
924  0
925  0
926  0
927  0
928  0
929  0
930  0
931  0
932  0
933  0
934  0
935  0
936  0
937  0
938  0
939  0
940  0
941  0
942  0
943  0
944  0
945  0
946  0
947  0
948  0
949  0
950  0
951  0
952  0
953  0
954  0
955  0
956  0
957  0
958  0
959  0
960  0
961  0
962  0
963  0
964  0
965  0
966  0
967  0
968  0
969  0
970  0
971  0
972  0
973  0
974  0
975  0
976  0
977  0
978  0
979  0
980  0
981  0
982  0
983  0
984  0
985  0
986  0
987  0
988  0
989  0
990  0
991  0
992  0
993  0
994  0
995  0
996  0
997  0
998  0
999  0
1000  0
1001  0
1002  0
1003  0
1004  0
1005  0
1006  0
1007  0
1008  0
1009  0
1010  0
1011  0
1012  0
1013  0
1014  0
1015  0
1016  0
1017  0
1018  0
1019  0
1020  0
1021  0
1022  0
1023  0
1024  0
1025  0
1026  0
1027  0
1028  0
1029  0
1030  0
1031  0
1032  0
1033  0
1034  0
1035  0
1036  0
1037  0
1038  0
1039  0
1040  0
1041  0
1042  0
1043  0
1044  0
1045  0
1046  0
1047  0
1048  0
1049  0
1050  0
1051  0
1052  0
1053  0
1054  0
1055  0
1056  0
1057  0
1058  0
1059  0
1060  0
1061  0
1062  0
1063  0
1064  0
1065  0
1066  0
1067  0
1068  0
1069  0
1070  0
1071  0
1072  0
1073  0
1074  0
1075  0
1076  0
1077  0
1078  0
1079  0
1080  0
1081  0
1082  0
1083  0
1084  0
1085  0
1086  0
1087  0
1088  0
1089  0
1090  0
1091  0
1092  0
1093  0
1094  0
1095  0
1096  0
1097  0
1098  0
1099  0
1100  0
1101  0
1102  0
1103  0
1104  0
1105  0
1106  0
1107  0
1108  0
1109  0
1110  0
1111  0
1112  0
1113  0
1114  0
1115  0
1116  0
1117  0
1118  0
1119  0
1120  0
1121  0
1122  0
1123  0
1124  0
1125  0
1126  0
1127  0
1128  0
1129  0
1130  0
1131  0
1132  0
1133  0
1134  0
1135  0
1136  0
1137  0
1138  0
1139  0
1140  0
1141  0
1142  0
1143  0
1144  0
1145  0
1146  0
1147  0
1148  0
1149  0
1150  0
1151  0
1152  0
1153  0
1154  0
1155  0
1156  0
1157  0
1158  0
1159  0
1160  0
1161  0
1162  0
1163  0
1164  0
1165  0
1166  0
1167  0
1168  0
1169  0
1170  0
1171  0
1172  0
1173  0
1174  0
1175  0
1176  0
1177  0
1178  0
1179  0
1180  0
1181  0
1182  0
1183  0
1184  0
1185  0
1186  0
1187  0
1188  0
1189  0
1190  0
1191  0
1192  0
1193  0
1194  0
1195  0
1196  0
1197  0
1198  0
1199  0
1200  0
1201  0
1202  0
1203  0
1204  0
1205  0
1206  0
1207  0
1208  0
1209  0
1210  0
1211  0
1212  0
1213  0
1214  0
1215  0
1216  0
1217  0
1218  0
1219  0
1220  0
1221  0
1222  0
1223  0
1224  0
1225  0
1226  0
1227  0
1228  0
1229  0
1230  0
1231  0
1232  0
1233  0
1234  0
1235  0
1236  0
1237  0
1238  0
1239  0
1240  0
1241  0
1242  0
1243  0
1244  0
1245  0
1246  0
1247  0
1248  0
1249  0
1250  0
1251  0
1252  0
1253  0
1254  0
1255  0
1256  0
1257  0
1258  0
1259  0
1260  0
1261  0
1262  0
1263  0
1264  0
1265  0
1266  0
1267  0
1268  0
1269  0
1270  0
1271  0
1272  0
1273  0
1274  0
1275  0
1276  0
1277  0
1278  0
1279  0
1280  0
1281  0
1282  0
1283  0
1284  0
1285  0
1286  0
1287  0
1288  0
1289  0
1290  0
1291  0
1292  0
1293  0
1294  0
1295  0
1296  0
1297  0
1298  0
1299  0
1300  0
1301  0
1302  0
1303  0
1304  0
1305  0
1306  0
1307  0
1308  0
1309  0
1310  0
1311  0
1312  0
1313  0
1314  0
1315  0
1316  0
1317  0
1318  0
1319  0
1320  0
1321  0
1322  0
1323  0
1324  0
1325  0
1326  0
1327  0
1328  0
1329  0
1330  0
1331  0
1332  0
1333  0
1334  0
1335  0
1336  0
1337  0
1338  0
1339  0
1340  0
1341  0
1342  0
1343  0
1344  0
1345  0
1346  0
1347  0
1348  0
1349  0
1350  0
1351  0
1352  0
1353  0
1354  0
1355  0
1356  0
1357  0
1358  0
1359  0
1360  0
1361  0
1362  0
1363  0
1364  0
1365  0
1366  0
1367  0
1368  0
1369  0
1370  0
1371  0
1372  0
1373  0
1374  0
1375  0
1376  0
1377  0
1378  0
1379  0
1380  0
1381  0
1382  0
1383  0
1384  0
1385  0
1386  0
1387  0
1388  0
1389  0
1390  0
1391  0
1392  0
1393  0
1394  0
1395  0
1396  0
1397  0
1398  0
1399  0
1400  0
1401  0
1402  0
1403  0
1404  0
1405  0
1406  0
1407  0
1408  0
1409  0
1410  0
1411  0
1412  0
1413  0
1414  0
1415  0
1416  0
1417  0
1418  0
1419  0
1420  0
1421  0
1422  0
1423  0
1424  0
1425  0
1426  0
1427  0
1428  0
1429  0
1430  0
1431  0
1432  0
1433  0
1434  0
1435  0
1436  0
1437  0
1438  0
1439  0
1440  0
1441  0
1442  0
1443  0
1444  0
1445  0
1446  0
1447  0
1448  0
1449  0
1450  0
1451  0
1452  0
1453  0
1454  0
1455  0
1456  0
1457  0
1458  0
1459  0
1460  0
1461  0
1462  0
1463  0
1464  0
1465  0
1466  0
1467  0
1468  0
1469  0
1470  0
1471  0
1472  0
1473  0
1474  0
1475  0
1476  0
1477  0
1478  0
1479  0
1480  0
1481  0
1482  0
1483  0
1484  0
1485  0
1486  0
1487  0
1488  0
1489  0
1490  0
1491  0
1492  0
1493  0
1494  0
1495  0
1496  0
1497  0
1498  0
1499  0
1500  0
1501  0
1502  0
1503  0
1504  0
1505  0
1506  0
1507  0
1508  0
1509  0
1510  0
1511  0
1512  0
1513  0
1514  0
1515  0
1516  0
1517  0
1518  0
1519  0
1520  0
1521  0
1522  0
1523  0
1524  0
1525  0
1526  0
1527  0
1528  0
1529  0
1530  0
1531  0
1532  0
1533  0
1534  0
1535  0
1536  0
1537  0
1538  0
1539  0
1540  0
1541  0
1542  0
1543  0
1544  0
1545  0
1546  0
1547  0
1548  0
1549  0
1550  0
1551  0
1552  0
1553  0
1554  0
1555  0
1556  0
1557  0
1558  0
1559  0
1560  0
1561  0
1562  0
1563  0
1564  0
1565  0
1566  0
1567  0
1568  0
1569  0
1570  0
1571  0
1572  0
1573  0
1574  0
1575  0
1576  0
1577  0
1578  0
1579  0
1580  0
1581  0
1582  0
1583  0
1584  0
1585  0
1586  0
1587  0
1588  0
1589  0
1590  0
1591  0
1592  0
1593  0
1594  0
1595  0
1596  0
1597  0
1598  3
1599  19
1600  79
1601  298
1602  889
1603  2174
1604  3797
1605  5051
1606  5553
1607  5971
1608  5699
1609  5613
1610  5531
1611  5380
1612  5268
1613  5091
1614  4905
1615  4864
1616  4633
1617  4530
1618  4364
1619  4123
1620  4062
1621  3842
1622  3785
1623  3651
1624  3585
1625  3397
1626  3285
1627  3130
1628  3088
1629  2897
1630  2841
1631  2801
1632  2732
1633  2590
1634  2477
1635  2398
1636  2236
1637  2264
1638  2181
1639  2090
1640  1989
1641  1975
1642  1870
1643  1875
1644  1829
1645  1701
1646  1604
1647  1562
1648  1568
1649  1476
1650  1418
1651  1379
1652  1439
1653  1335
1654  1260
1655  1272
1656  1264
1657  1173
1658  1145
1659  1141
1660  1106
1661  1052
1662  1055
1663  918
1664  1054
1665  940
1666  969
1667  908
1668  878
1669  859
1670  855
1671  833
1672  804
1673  773
1674  726
1675  777
1676  694
1677  730
1678  688
1679  648
1680  644
1681  636
1682  630
1683  582
1684  620
1685  619
1686  529
1687  573
1688  519
1689  558
1690  501
1691  503
1692  464
1693  506
1694  474
1695  467
1696  483
1697  453
1698  434
1699  407
1700  456
1701  428
1702  407
1703  373
1704  400
1705  404
1706  393
1707  351
1708  374
1709  361
1710  331
1711  336
1712  311
1713  318
1714  286
1715  305
1716  300
1717  265
1718  249
1719  299
1720  277
1721  266
1722  289
1723  259
1724  281
1725  259
1726  221
1727  260
1728  214
1729  216
1730  246
1731  259
1732  227
1733  229
1734  209
1735  209
1736  204
1737  176
1738  211
1739  193
1740  189
1741  155
1742  170
1743  192
1744  193
1745  174
1746  167
1747  164
1748  179
1749  155
1750  169
1751  155
1752  179
1753  162
1754  163
1755  161
1756  124
1757  137
1758  136
1759  135
1760  138
1761  134
1762  131
1763  108
1764  129
1765  125
1766  116
1767  105
1768  100
1769  124
1770  97
1771  97
1772  122
1773  108
1774  111
1775  102
1776  91
1777  90
1778  108
1779  106
1780  103
1781  103
1782  77
1783  110
1784  86
1785  80
1786  82
1787  80
1788  88
1789  93
1790  94
1791  90
1792  84
1793  84
1794  74
1795  71
1796  68
1797  93
1798  75
1799  68
1800  74
1801  72
1802  82
1803  70
1804  66
1805  78
1806  61
1807  69
1808  64
1809  69
1810  58
1811  56
1812  57
1813  63
1814  71
1815  74
1816  71
1817  52
1818  52
1819  65
1820  55
1821  53
1822  64
1823  62
1824  61
1825  54
1826  56
1827  59
1828  72
1829  68
1830  67
1831  52
1832  49
1833  55
1834  66
1835  46
1836  63
1837  55
1838  44
1839  43
1840  45
1841  60
1842  54
1843  46
1844  46
1845  76
1846  50
1847  46
1848  66
1849  65
1850  63
1851  58
1852  73
1853  70
1854  57
1855  59
1856  66
1857  61
1858  57
1859  56
1860  63
1861  61
1862  76
1863  67
1864  75
1865  79
1866  75
1867  83
1868  87
1869  73
1870  82
1871  84
1872  81
1873  83
1874  103
1875  80
1876  84
1877  117
1878  103
1879  80
1880  105
1881  102
1882  97
1883  81
1884  93
1885  106
1886  103
1887  121
1888  116
1889  109
1890  118
1891  102
1892  106
1893  117
1894  122
1895  140
1896  123
1897  135
1898  143
1899  140
1900  152
1901  138
1902  163
1903  157
1904  163
1905  163
1906  157
1907  150
1908  188
1909  177
1910  148
1911  161
1912  183
1913  205
1914  198
1915  177
1916  209
1917  190
1918  191
1919  195
1920  206
1921  202
1922  203
1923  194
1924  195
1925  218
1926  191
1927  211
1928  222
1929  208
1930  226
1931  208
1932  224
1933  234
1934  228
1935  216
1936  214
1937  214
1938  212
1939  230
1940  253
1941  243
1942  226
1943  236
1944  234
1945  251
1946  249
1947  262
1948  266
1949  250
1950  237
1951  259
1952  265
1953  253
1954  263
1955  268
1956  253
1957  276
1958  271
1959  263
1960  277
1961  262
1962  270
1963  273
1964  289
1965  271
1966  261
1967  263
1968  306
1969  277
1970  277
1971  250
1972  259
1973  292
1974  259
1975  285
1976  269
1977  257
1978  277
1979  293
1980  272
1981  303
1982  239
1983  284
1984  288
1985  264
1986  296
1987  291
1988  257
1989  296
1990  285
1991  304
1992  250
1993  260
1994  286
1995  305
1996  268
1997  291
1998  271
1999  274
2000  271
2001  295
2002  263
2003  268
2004  283
2005  273
2006  261
2007  224
2008  278
2009  242
2010  276
2011  287
2012  243
2013  250
2014  270
2015  283
2016  264
2017  294
2018  269
2019  231
2020  250
2021  246
2022  245
2023  246
2024  276
2025  270
2026  248
2027  248
2028  260
2029  241
2030  253
2031  260
2032  254
2033  238
2034  257
2035  239
2036  258
2037  240
2038  243
2039  245
2040  252
2041  249
2042  226
2043  235
2044  235
2045  252
2046  239
2047  238
2048  225
2049  238
2050  245
2051  225
2052  243
2053  237
2054  249
2055  226
2056  254
2057  222
2058  235
2059  231
2060  230
2061  248
2062  227
2063  237
2064  227
2065  226
2066  239
2067  214
2068  201
2069  193
2070  234
2071  229
2072  208
2073  232
2074  206
2075  230
2076  221
2077  225
2078  235
2079  215
2080  236
2081  215
2082  224
2083  200
2084  221
2085  242
2086  211
2087  231
2088  222
2089  229
2090  203
2091  177
2092  189
2093  200
2094  185
2095  212
2096  199
2097  197
2098  189
2099  210
2100  194
2101  190
2102  184
2103  199
2104  214
2105  174
2106  171
2107  178
2108  177
2109  175
2110  209
2111  210
2112  189
2113  179
2114  183
2115  190
2116  190
2117  221
2118  163
2119  207
2120  170
2121  175
2122  170
2123  172
2124  174
2125  185
2126  191
2127  204
2128  160
2129  182
2130  155
2131  174
2132  150
2133  160
2134  162
2135  173
2136  182
2137  156
2138  151
2139  172
2140  161
2141  162
2142  183
2143  169
2144  162
2145  168
2146  157
2147  152
2148  157
2149  145
2150  154
2151  147
2152  139
2153  143
2154  167
2155  132
2156  162
2157  154
2158  141
2159  180
2160  163
2161  137
2162  153
2163  125
2164  159
2165  144
2166  152
2167  149
2168  145
2169  129
2170  122
2171  152
2172  130
2173  134
2174  137
2175  135
2176  133
2177  154
2178  127
2179  151
2180  121
2181  126
2182  138
2183  151
2184  141
2185  134
2186  139
2187  139
2188  132
2189  149
2190  129
2191  126
2192  108
2193  125
2194  113
2195  121
2196  111
2197  127
2198  116
2199  120
2200  120
2201  146
2202  124
2203  110
2204  118
2205  121
2206  118
2207  99
2208  106
2209  110
2210  120
2211  128
2212  107
2213  120
2214  122
2215  112
2216  131
2217  101
2218  112
2219  97
2220  89
2221  104
2222  109
2223  104
2224  118
2225  105
2226  112
2227  111
2228  106
2229  122
2230  107
2231  104
2232  103
2233  114
2234  108
2235  103
2236  100
2237  103
2238  96
2239  105
2240  105
2241  77
2242  99
2243  108
2244  92
2245  86
2246  93
2247  98
2248  103
2249  89
2250  97
2251  92
2252  89
2253  109
2254  83
2255  79
2256  91
2257  101
2258  107
2259  92
2260  88
2261  98
2262  109
2263  86
2264  87
2265  96
2266  96
2267  103
2268  72
2269  82
2270  92
2271  85
2272  82
2273  84
2274  79
2275  94
2276  84
2277  86
2278  71
2279  88
2280  70
2281  77
2282  72
2283  79
2284  87
2285  84
2286  76
2287  75
2288  77
2289  94
2290  68
2291  62
2292  70
2293  68
2294  82
2295  57
2296  86
2297  66
2298  62
2299  67
2300  68
2301  74
2302  52
2303  63
2304  72
2305  77
2306  78
2307  72
2308  68
2309  78
2310  60
2311  57
2312  68
2313  74
2314  68
2315  68
2316  57
2317  81
2318  55
2319  82
2320  74
2321  66
2322  57
2323  62
2324  64
2325  70
2326  65
2327  59
2328  67
2329  67
2330  64
2331  70
2332  56
2333  75
2334  51
2335  52
2336  52
2337  60
2338  63
2339  65
2340  58
2341  65
2342  63
2343  58
2344  66
2345  48
2346  49
2347  58
2348  67
2349  60
2350  69
2351  56
2352  62
2353  65
2354  62
2355  52
2356  74
2357  57
2358  63
2359  55
2360  49
2361  59
2362  61
2363  59
2364  64
2365  45
2366  54
2367  50
2368  49
2369  44
2370  56
2371  64
2372  55
2373  59
2374  50
2375  49
2376  46
2377  53
2378  51
2379  57
2380  53
2381  45
2382  54
2383  36
2384  51
2385  54
2386  37
2387  48
2388  54
2389  55
2390  44
2391  45
2392  41
2393  58
2394  44
2395  45
2396  38
2397  42
2398  50
2399  41
2400  36
2401  50
2402  51
2403  48
2404  47
2405  40
2406  55
2407  52
2408  51
2409  46
2410  41
2411  48
2412  46
2413  39
2414  41
2415  43
2416  46
2417  43
2418  40
2419  35
2420  45
2421  44
2422  49
2423  43
2424  40
2425  34
2426  49
2427  44
2428  44
2429  38
2430  41
2431  38
2432  35
2433  45
2434  31
2435  37
2436  38
2437  41
2438  34
2439  22
2440  39
2441  37
2442  33
2443  45
2444  27
2445  35
2446  36
2447  44
2448  32
2449  36
2450  28
2451  30
2452  22
2453  33
2454  23
2455  41
2456  30
2457  38
2458  31
2459  45
2460  35
2461  36
2462  28
2463  39
2464  35
2465  25
2466  37
2467  34
2468  32
2469  33
2470  18
2471  37
2472  29
2473  36
2474  35
2475  34
2476  33
2477  32
2478  35
2479  33
2480  28
2481  33
2482  29
2483  36
2484  37
2485  33
2486  45
2487  31
2488  23
2489  25
2490  26
2491  25
2492  34
2493  38
2494  27
2495  38
2496  26
2497  23
2498  29
2499  34
2500  40
2501  29
2502  28
2503  25
2504  28
2505  37
2506  32
2507  24
2508  32
2509  27
2510  32
2511  19
2512  28
2513  33
2514  29
2515  24
2516  22
2517  22
2518  26
2519  29
2520  26
2521  34
2522  35
2523  18
2524  26
2525  25
2526  26
2527  24
2528  27
2529  32
2530  34
2531  17
2532  25
2533  27
2534  36
2535  28
2536  22
2537  25
2538  24
2539  25
2540  28
2541  18
2542  23
2543  25
2544  27
2545  24
2546  21
2547  33
2548  22
2549  22
2550  25
2551  16
2552  29
2553  23
2554  31
2555  17
2556  23
2557  27
2558  20
2559  24
2560  26
2561  17
2562  19
2563  20
2564  25
2565  19
2566  18
2567  27
2568  15
2569  32
2570  22
2571  16
2572  19
2573  29
2574  20
2575  23
2576  21
2577  19
2578  23
2579  20
2580  17
2581  16
2582  17
2583  17
2584  14
2585  19
2586  15
2587  21
2588  19
2589  17
2590  10
2591  18
2592  17
2593  21
2594  12
2595  18
2596  17
2597  17
2598  16
2599  26
2600  29
2601  19
2602  14
2603  21
2604  19
2605  15
2606  18
2607  17
2608  20
2609  15
2610  14
2611  21
2612  10
2613  23
2614  21
2615  18
2616  15
2617  12
2618  13
2619  22
2620  20
2621  14
2622  23
2623  19
2624  10
2625  14
2626  19
2627  17
2628  23
2629  16
2630  14
2631  14
2632  21
2633  18
2634  12
2635  9
2636  9
2637  17
2638  14
2639  15
2640  15
2641  17
2642  10
2643  20
2644  20
2645  19
2646  16
2647  13
2648  24
2649  16
2650  13
2651  16
2652  9
2653  11
2654  11
2655  17
2656  16
2657  15
2658  12
2659  14
2660  17
2661  13
2662  18
2663  14
2664  13
2665  15
2666  9
2667  13
2668  10
2669  13
2670  15
2671  15
2672  16
2673  15
2674  16
2675  8
2676  10
2677  21
2678  12
2679  11
2680  12
2681  17
2682  13
2683  16
2684  12
2685  21
2686  13
2687  21
2688  17
2689  16
2690  9
2691  16
2692  15
2693  9
2694  14
2695  8
2696  16
2697  11
2698  14
2699  15
2700  15
2701  12
2702  14
2703  17
2704  14
2705  9
2706  13
2707  12
2708  15
2709  12
2710  9
2711  12
2712  10
2713  9
2714  3
2715  10
2716  11
2717  15
2718  15
2719  11
2720  10
2721  12
2722  4
2723  12
2724  10
2725  7
2726  7
2727  6
2728  13
2729  10
2730  4
2731  9
2732  16
2733  11
2734  6
2735  12
2736  13
2737  17
2738  11
2739  6
2740  15
2741  8
2742  12
2743  9
2744  14
2745  9
2746  7
2747  9
2748  5
2749  12
2750  14
2751  7
2752  8
2753  12
2754  7
2755  15
2756  8
2757  12
2758  3
2759  8
2760  10
2761  9
2762  10
2763  13
2764  9
2765  7
2766  4
2767  10
2768  9
2769  12
2770  7
2771  11
2772  9
2773  10
2774  8
2775  8
2776  8
2777  8
2778  9
2779  6
2780  8
2781  9
2782  8
2783  10
2784  8
2785  6
2786  9
2787  12
2788  10
2789  12
2790  7
2791  7
2792  4
2793  8
2794  6
2795  6
2796  11
2797  7
2798  8
2799  6
2800  6
2801  7
2802  6
2803  10
2804  6
2805  10
2806  7
2807  8
2808  7
2809  4
2810  14
2811  8
2812  5
2813  6
2814  6
2815  8
2816  7
2817  5
2818  6
2819  6
2820  10
2821  11
2822  13
2823  7
2824  12
2825  8
2826  7
2827  6
2828  6
2829  3
2830  6
2831  9
2832  9
2833  9
2834  13
2835  12
2836  7
2837  5
2838  4
2839  9
2840  5
2841  12
2842  5
2843  5
2844  11
2845  4
2846  4
2847  5
2848  11
2849  8
2850  8
2851  10
2852  12
2853  12
2854  6
2855  6
2856  8
2857  6
2858  9
2859  10
2860  8
2861  4
2862  7
2863  9
2864  8
2865  5
2866  7
2867  3
2868  13
2869  10
2870  11
2871  11
2872  3
2873  5
2874  5
2875  10
2876  7
2877  10
2878  8
2879  6
2880  7
2881  5
2882  7
2883  6
2884  6
2885  5
2886  14
2887  6
2888  8
2889  7
2890  4
2891  4
2892  5
2893  5
2894  5
2895  3
2896  2
2897  8
2898  9
2899  8
2900  8
2901  3
2902  4
2903  3
2904  7
2905  6
2906  4
2907  8
2908  4
2909  9
2910  4
2911  5
2912  3
2913  5
2914  6
2915  7
2916  2
2917  2
2918  5
2919  4
2920  2
2921  7
2922  4
2923  11
2924  4
2925  7
2926  8
2927  6
2928  4
2929  5
2930  4
2931  5
2932  5
2933  7
2934  4
2935  4
2936  6
2937  8
2938  7
2939  7
2940  4
2941  3
2942  4
2943  5
2944  4
2945  4
2946  1
2947  5
2948  4
2949  4
2950  6
2951  8
2952  6
2953  3
2954  2
2955  7
2956  5
2957  5
2958  1
2959  6
2960  6
2961  4
2962  3
2963  8
2964  2
2965  4
2966  4
2967  8
2968  4
2969  2
2970  5
2971  5
2972  12
2973  4
2974  6
2975  6
2976  5
2977  5
2978  6
2979  3
2980  4
2981  5
2982  5
2983  5
2984  7
2985  5
2986  2
2987  4
2988  0
2989  2
2990  2
2991  3
2992  2
2993  6
2994  4
2995  4
2996  4
2997  2
2998  2
2999  1
3000  0
3001  7
3002  6
3003  3
3004  8
3005  3
3006  6
3007  2
3008  3
3009  6
3010  2
3011  9
3012  3
3013  5
3014  4
3015  3
3016  5
3017  4
3018  4
3019  4
3020  1
3021  3
3022  3
3023  8
3024  2
3025  6
3026  4
3027  7
3028  5
3029  3
3030  3
3031  2
3032  4
3033  5
3034  4
3035  4
3036  4
3037  4
3038  4
3039  5
3040  3
3041  6
3042  3
3043  5
3044  6
3045  2
3046  5
3047  5
3048  1
3049  2
3050  1
3051  5
3052  6
3053  3
3054  3
3055  2
3056  4
3057  4
3058  1
3059  1
3060  4
3061  5
3062  2
3063  4
3064  5
3065  3
3066  6
3067  2
3068  2
3069  4
3070  3
3071  8
3072  4
3073  2
3074  4
3075  0
3076  6
3077  3
3078  5
3079  5
3080  2
3081  5
3082  3
3083  2
3084  4
3085  3
3086  6
3087  0
3088  6
3089  5
3090  5
3091  7
3092  4
3093  3
3094  2
3095  4
3096  6
3097  2
3098  3
3099  4
3100  5
3101  6
3102  5
3103  4
3104  3
3105  1
3106  5
3107  6
3108  0
3109  6
3110  3
3111  4
3112  1
3113  1
3114  2
3115  6
3116  1
3117  3
3118  2
3119  2
3120  4
3121  2
3122  3
3123  4
3124  2
3125  3
3126  1
3127  1
3128  0
3129  4
3130  4
3131  4
3132  2
3133  3
3134  0
3135  3
3136  7
3137  3
3138  2
3139  3
3140  3
3141  3
3142  9
3143  4
3144  3
3145  4
3146  2
3147  5
3148  3
3149  3
3150  3
3151  1
3152  4
3153  1
3154  2
3155  3
3156  4
3157  8
3158  5
3159  1
3160  1
3161  2
3162  4
3163  4
3164  5
3165  4
3166  3
3167  4
3168  5
3169  1
3170  2
3171  3
3172  3
3173  1
3174  7
3175  6
3176  4
3177  5
3178  4
3179  0
3180  1
3181  4
3182  3
3183  3
3184  3
3185  2
3186  4
3187  3
3188  3
3189  5
3190  5
3191  3
3192  2
3193  1
3194  1
3195  7
3196  1
3197  4
3198  4
3199  6
3200  4
3201  3
3202  6
3203  4
3204  3
3205  0
3206  3
3207  5
3208  1
3209  5
3210  2
3211  1
3212  5
3213  4
3214  5
3215  1
3216  1
3217  2
3218  2
3219  5
3220  2
3221  2
3222  4
3223  1
3224  1
3225  6
3226  5
3227  6
3228  8
3229  1
3230  2
3231  0
3232  3
3233  0
3234  4
3235  3
3236  3
3237  5
3238  5
3239  3
3240  0
3241  2
3242  2
3243  3
3244  7
3245  7
3246  0
3247  1
3248  1
3249  2
3250  1
3251  2
3252  2
3253  2
3254  3
3255  5
3256  3
3257  2
3258  4
3259  3
3260  2
3261  3
3262  1
3263  4
3264  3
3265  2
3266  5
3267  4
3268  2
3269  3
3270  3
3271  3
3272  2
3273  5
3274  3
3275  1
3276  4
3277  1
3278  5
3279  0
3280  3
3281  4
3282  2
3283  2
3284  3
3285  3
3286  1
3287  3
3288  3
3289  1
3290  0
3291  1
3292  0
3293  1
3294  1
3295  3
3296  2
3297  4
3298  6
3299  2
3300  3
3301  5
3302  3
3303  4
3304  1
3305  2
3306  2
3307  0
3308  3
3309  3
3310  2
3311  2
3312  4
3313  0
3314  3
3315  1
3316  2
3317  3
3318  3
3319  3
3320  1
3321  1
3322  6
3323  5
3324  2
3325  3
3326  2
3327  1
3328  3
3329  1
3330  4
3331  1
3332  2
3333  4
3334  2
3335  2
3336  6
3337  3
3338  3
3339  2
3340  4
3341  3
3342  4
3343  2
3344  1
3345  1
3346  4
3347  0
3348  4
3349  2
3350  2
3351  1
3352  2
3353  1
3354  0
3355  1
3356  2
3357  3
3358  2
3359  6
3360  1
3361  0
3362  5
3363  2
3364  0
3365  1
3366  1
3367  5
3368  3
3369  7
3370  2
3371  2
3372  3
3373  2
3374  0
3375  3
3376  6
3377  2
3378  4
3379  2
3380  2
3381  1
3382  3
3383  5
3384  2
3385  1
3386  2
3387  2
3388  0
3389  3
3390  3
3391  2
3392  1
3393  1
3394  4
3395  1
3396  4
3397  2
3398  3
3399  2
3400  3
3401  1
3402  5
3403  1
3404  1
3405  0
3406  5
3407  1
3408  5
3409  2
3410  1
3411  3
3412  2
3413  2
3414  1
3415  2
3416  4
3417  0
3418  2
3419  2
3420  3
3421  3
3422  2
3423  1
3424  1
3425  7
3426  2
3427  1
3428  2
3429  2
3430  1
3431  7
3432  1
3433  3
3434  4
3435  3
3436  2
3437  1
3438  1
3439  4
3440  2
3441  1
3442  3
3443  5
3444  2
3445  3
3446  2
3447  2
3448  4
3449  2
3450  4
3451  5
3452  5
3453  5
3454  3
3455  1
3456  1
3457  1
3458  3
3459  1
3460  1
3461  0
3462  1
3463  2
3464  2
3465  7
3466  2
3467  1
3468  3
3469  3
3470  4
3471  2
3472  1
3473  4
3474  3
3475  3
3476  5
3477  2
3478  3
3479  0
3480  2
3481  3
3482  2
3483  4
3484  2
3485  2
3486  4
3487  3
3488  4
3489  3
3490  3
3491  1
3492  1
3493  1
3494  1
3495  6
3496  2
3497  3
3498  2
3499  1
3500  2
3501  3
3502  3
3503  3
3504  0
3505  3
3506  2
3507  3
3508  5
3509  0
3510  5
3511  2
3512  1
3513  3
3514  4
3515  1
3516  1
3517  5
3518  3
3519  1
3520  3
3521  0
3522  3
3523  3
3524  5
3525  1
3526  5
3527  4
3528  3
3529  0
3530  1
3531  3
3532  4
3533  1
3534  1
3535  3
3536  1
3537  4
3538  1
3539  1
3540  2
3541  1
3542  3
3543  1
3544  3
3545  3
3546  3
3547  3
3548  2
3549  4
3550  1
3551  1
3552  2
3553  5
3554  1
3555  5
3556  3
3557  2
3558  3
3559  3
3560  1
3561  6
3562  3
3563  1
3564  3
3565  2
3566  5
3567  6
3568  4
3569  3
3570  1
3571  1
3572  3
3573  2
3574  1
3575  5
3576  1
3577  2
3578  1
3579  3
3580  3
3581  2
3582  1
3583  3
3584  1
3585  4
3586  0
3587  0
3588  2
3589  2
3590  0
3591  1
3592  0
3593  1
3594  2
3595  2
3596  1
3597  1
3598  3
3599  1
3600  1
3601  6
3602  5
3603  1
3604  4
3605  2
3606  3
3607  5
3608  4
3609  2
3610  0
3611  5
3612  5
3613  2
3614  7
3615  1
3616  2
3617  0
3618  1
3619  5
3620  3
3621  2
3622  2
3623  4
3624  4
3625  1
3626  1
3627  1
3628  3
3629  1
3630  5
3631  4
3632  4
3633  0
3634  2
3635  5
3636  5
3637  4
3638  0
3639  2
3640  0
3641  1
3642  7
3643  4
3644  2
3645  4
3646  2
3647  3
3648  2
3649  3
3650  0
3651  2
3652  5
3653  6
3654  2
3655  0
3656  3
3657  3
3658  3
3659  2
3660  3
3661  3
3662  5
3663  4
3664  2
3665  0
3666  4
3667  3
3668  0
3669  1
3670  3
3671  2
3672  2
3673  4
3674  1
3675  4
3676  3
3677  3
3678  3
3679  2
3680  1
3681  1
3682  4
3683  0
3684  6
3685  1
3686  3
3687  10
3688  5
3689  4
3690  1
3691  4
3692  3
3693  1
3694  10
3695  4
3696  1
3697  5
3698  2
3699  3
3700  0
3701  2
3702  3
3703  3
3704  2
3705  3
3706  2
3707  3
3708  5
3709  3
3710  3
3711  1
3712  4
3713  2
3714  2
3715  4
3716  3
3717  0
3718  2
3719  1
3720  0
3721  1
3722  2
3723  5
3724  2
3725  4
3726  2
3727  0
3728  1
3729  7
3730  1
3731  2
3732  4
3733  4
3734  2
3735  4
3736  2
3737  2
3738  4
3739  3
3740  2
3741  1
3742  4
3743  1
3744  1
3745  1
3746  7
3747  4
3748  2
3749  1
3750  2
3751  0
3752  3
3753  5
3754  0
3755  2
3756  2
3757  3
3758  7
3759  3
3760  3
3761  2
3762  5
3763  3
3764  3
3765  5
3766  3
3767  2
3768  1
3769  4
3770  4
3771  4
3772  2
3773  5
3774  1
3775  3
3776  7
3777  1
3778  4
3779  2
3780  6
3781  3
3782  3
3783  2
3784  6
3785  1
3786  4
3787  1
3788  4
3789  4
3790  2
3791  6
3792  3
3793  0
3794  3
3795  3
3796  4
3797  3
3798  6
3799  2
3800  2
3801  6
3802  4
3803  1
3804  4
3805  4
3806  4
3807  2
3808  3
3809  0
3810  4
3811  0
3812  2
3813  2
3814  0
3815  4
3816  2
3817  1
3818  7
3819  3
3820  2
3821  3
3822  3
3823  4
3824  5
3825  3
3826  2
3827  1
3828  1
3829  2
3830  3
3831  4
3832  1
3833  1
3834  4
3835  2
3836  3
3837  3
3838  1
3839  2
3840  0
3841  0
3842  0
3843  0
3844  0
3845  0
3846  0
3847  0
3848  0
3849  0
3850  0
3851  0
3852  0
3853  0
3854  0
3855  0
3856  0
3857  0
3858  0
3859  0
3860  0
3861  0
3862  0
3863  0
3864  0
3865  0
3866  0
3867  0
3868  0
3869  0
3870  0
3871  0
3872  0
3873  0
3874  0
3875  0
3876  0
3877  0
3878  0
3879  0
3880  0
3881  0
3882  0
3883  0
3884  0
3885  0
3886  0
3887  0
3888  0
3889  0
3890  0
3891  0
3892  0
3893  0
3894  0
3895  0
3896  0
3897  0
3898  0
3899  0
3900  0
3901  0
3902  0
3903  0
3904  0
3905  0
3906  0
3907  0
3908  0
3909  0
3910  0
3911  0
3912  0
3913  0
3914  0
3915  0
3916  0
3917  0
3918  0
3919  0
3920  0
3921  0
3922  0
3923  0
3924  0
3925  0
3926  0
3927  0
3928  0
3929  0
3930  0
3931  0
3932  0
3933  0
3934  0
3935  0
3936  0
3937  0
3938  0
3939  0
3940  0
3941  0
3942  0
3943  0
3944  0
3945  0
3946  0
3947  0
3948  0
3949  0
3950  0
3951  0
3952  0
3953  0
3954  0
3955  0
3956  0
3957  0
3958  0
3959  0
3960  0
3961  0
3962  0
3963  0
3964  0
3965  0
3966  0
3967  0
3968  0
3969  0
3970  0
3971  0
3972  0
3973  0
3974  0
3975  0
3976  0
3977  0
3978  0
3979  0
3980  0
3981  0
3982  0
3983  0
3984  0
3985  0
3986  0
3987  0
3988  0
3989  0
3990  0
3991  0
3992  0
3993  0
3994  0
3995  0
3996  0
3997  0
3998  0
3999  0
4000  0
4001  0
4002  0
4003  0
4004  0
4005  0
4006  0
4007  0
4008  0
4009  0
4010  0
4011  0
4012  0
4013  0
4014  0
4015  0
4016  0
4017  0
4018  0
4019  0
4020  0
4021  0
4022  0
4023  0
4024  0
4025  0
4026  0
4027  0
4028  0
4029  0
4030  0
4031  0
4032  0
4033  0
4034  0
4035  0
4036  0
4037  0
4038  0
4039  0
4040  0
4041  0
4042  0
4043  0
4044  0
4045  0
4046  0
4047  0
4048  0
4049  0
4050  0
4051  0
4052  0
4053  0
4054  0
4055  0
4056  0
4057  0
4058  0
4059  0
4060  0
4061  0
4062  0
4063  0
4064  0
4065  0
4066  0
4067  0
4068  0
4069  0
4070  0
4071  0
4072  0
4073  0
4074  0
4075  0
4076  0
4077  0
4078  0
4079  0
4080  0
4081  0
4082  0
4083  0
4084  0
4085  0
4086  0
4087  0
4088  0
4089  0
4090  0
4091  0
4092  0
4093  0
4094  0
4095  0
