0  0
1  0
2  0
3  0
4  0
5  0
6  0
7  0
8  0
9  0
10  0
11  0
12  0
13  0
14  0
15  0
16  0
17  0
18  0
19  0
20  0
21  0
22  0
23  0
24  0
25  0
26  0
27  0
28  0
29  0
30  0
31  0
32  0
33  0
34  0
35  0
36  0
37  0
38  0
39  0
40  0
41  0
42  0
43  0
44  0
45  0
46  0
47  0
48  0
49  0
50  0
51  0
52  0
53  0
54  0
55  0
56  0
57  0
58  0
59  0
60  0
61  0
62  0
63  0
64  0
65  0
66  0
67  0
68  0
69  0
70  0
71  0
72  0
73  0
74  0
75  0
76  0
77  0
78  0
79  0
80  0
81  0
82  0
83  0
84  0
85  0
86  0
87  0
88  0
89  0
90  0
91  0
92  0
93  0
94  0
95  0
96  0
97  0
98  0
99  0
100  0
101  0
102  0
103  0
104  0
105  0
106  0
107  0
108  0
109  0
110  0
111  0
112  0
113  0
114  0
115  0
116  0
117  0
118  0
119  0
120  0
121  0
122  0
123  0
124  0
125  0
126  0
127  0
128  0
129  0
130  0
131  0
132  0
133  0
134  0
135  0
136  0
137  0
138  0
139  0
140  0
141  0
142  0
143  0
144  0
145  0
146  0
147  0
148  0
149  0
150  0
151  0
152  0
153  0
154  0
155  0
156  0
157  0
158  0
159  0
160  0
161  0
162  0
163  0
164  0
165  0
166  0
167  0
168  0
169  0
170  0
171  0
172  0
173  0
174  0
175  0
176  0
177  0
178  0
179  0
180  0
181  0
182  0
183  0
184  0
185  0
186  0
187  0
188  0
189  0
190  0
191  0
192  0
193  0
194  0
195  0
196  0
197  0
198  0
199  0
200  0
201  0
202  0
203  0
204  0
205  0
206  0
207  0
208  0
209  0
210  0
211  0
212  0
213  0
214  0
215  0
216  0
217  0
218  0
219  0
220  0
221  0
222  0
223  0
224  0
225  0
226  0
227  0
228  0
229  0
230  0
231  0
232  0
233  0
234  0
235  0
236  0
237  0
238  0
239  0
240  0
241  0
242  0
243  0
244  0
245  0
246  0
247  0
248  0
249  0
250  0
251  0
252  0
253  0
254  0
255  0
256  0
257  0
258  0
259  0
260  0
261  0
262  0
263  0
264  0
265  0
266  0
267  0
268  0
269  0
270  0
271  0
272  0
273  0
274  0
275  0
276  0
277  0
278  0
279  0
280  0
281  0
282  0
283  0
284  0
285  0
286  0
287  0
288  0
289  0
290  0
291  0
292  0
293  0
294  0
295  0
296  0
297  0
298  0
299  0
300  0
301  0
302  0
303  0
304  0
305  0
306  0
307  0
308  0
309  0
310  0
311  0
312  0
313  0
314  0
315  0
316  0
317  0
318  0
319  0
320  0
321  0
322  0
323  0
324  0
325  0
326  0
327  0
328  0
329  0
330  0
331  0
332  0
333  0
334  0
335  0
336  0
337  0
338  0
339  0
340  0
341  0
342  0
343  0
344  0
345  0
346  0
347  0
348  0
349  0
350  0
351  0
352  0
353  0
354  0
355  0
356  0
357  0
358  0
359  0
360  0
361  0
362  0
363  0
364  0
365  0
366  0
367  0
368  0
369  0
370  0
371  0
372  0
373  0
374  0
375  0
376  0
377  0
378  0
379  0
380  0
381  0
382  0
383  0
384  0
385  0
386  0
387  0
388  0
389  0
390  0
391  0
392  0
393  0
394  0
395  0
396  0
397  0
398  0
399  0
400  0
401  0
402  0
403  0
404  0
405  0
406  0
407  0
408  0
409  0
410  0
411  0
412  0
413  0
414  0
415  0
416  0
417  0
418  0
419  0
420  0
421  0
422  0
423  0
424  0
425  0
426  0
427  0
428  0
429  0
430  0
431  0
432  0
433  0
434  0
435  0
436  0
437  0
438  0
439  0
440  0
441  0
442  0
443  0
444  0
445  0
446  0
447  0
448  0
449  0
450  0
451  0
452  0
453  0
454  0
455  0
456  0
457  0
458  0
459  0
460  0
461  0
462  0
463  0
464  0
465  0
466  0
467  0
468  0
469  0
470  0
471  0
472  0
473  0
474  0
475  0
476  0
477  0
478  0
479  0
480  0
481  0
482  0
483  0
484  0
485  0
486  0
487  0
488  0
489  0
490  0
491  0
492  0
493  0
494  0
495  0
496  0
497  0
498  0
499  0
500  0
501  0
502  0
503  0
504  0
505  0
506  0
507  0
508  0
509  0
510  0
511  0
512  0
513  0
514  0
515  0
516  0
517  0
518  0
519  0
520  0
521  0
522  0
523  0
524  0
525  0
526  0
527  0
528  0
529  0
530  0
531  0
532  0
533  0
534  0
535  0
536  0
537  0
538  0
539  0
540  0
541  0
542  0
543  0
544  0
545  0
546  0
547  0
548  0
549  0
550  0
551  0
552  0
553  0
554  0
555  0
556  0
557  0
558  0
559  0
560  0
561  0
562  0
563  0
564  0
565  0
566  0
567  0
568  0
569  0
570  0
571  0
572  0
573  0
574  0
575  0
576  0
577  0
578  0
579  0
580  0
581  0
582  0
583  0
584  0
585  0
586  0
587  0
588  0
589  0
590  0
591  0
592  0
593  0
594  0
595  0
596  0
597  0
598  0
599  0
600  0
601  0
602  0
603  0
604  0
605  0
606  0
607  0
608  0
609  0
610  0
611  0
612  0
613  0
614  0
615  0
616  0
617  0
618  0
619  0
620  0
621  0
622  0
623  0
624  0
625  0
626  0
627  0
628  0
629  0
630  0
631  0
632  0
633  0
634  0
635  0
636  0
637  0
638  0
639  0
640  0
641  0
642  0
643  0
644  0
645  0
646  0
647  0
648  0
649  0
650  0
651  0
652  0
653  0
654  0
655  0
656  0
657  0
658  0
659  0
660  0
661  0
662  0
663  0
664  0
665  0
666  0
667  0
668  0
669  0
670  0
671  0
672  0
673  0
674  0
675  0
676  0
677  0
678  0
679  0
680  0
681  0
682  0
683  0
684  0
685  0
686  0
687  0
688  0
689  0
690  0
691  0
692  0
693  0
694  0
695  0
696  0
697  0
698  0
699  0
700  0
701  0
702  0
703  0
704  0
705  0
706  0
707  0
708  0
709  0
710  0
711  0
712  0
713  0
714  0
715  0
716  0
717  0
718  0
719  0
720  0
721  0
722  0
723  0
724  0
725  0
726  0
727  0
728  0
729  0
730  0
731  0
732  0
733  0
734  0
735  0
736  0
737  0
738  0
739  0
740  0
741  0
742  0
743  0
744  0
745  0
746  0
747  0
748  0
749  0
750  0
751  0
752  0
753  0
754  0
755  0
756  0
757  0
758  0
759  0
760  0
761  0
762  0
763  0
764  0
765  0
766  0
767  0
768  0
769  0
770  0
771  0
772  0
773  0
774  0
775  0
776  0
777  0
778  0
779  0
780  0
781  0
782  0
783  0
784  0
785  0
786  0
787  0
788  0
789  0
790  0
791  0
792  0
793  0
794  0
795  0
796  0
797  0
798  0
799  0
800  0
801  0
802  0
803  0
804  0
805  0
806  0
807  0
808  0
809  0
810  0
811  0
812  0
813  0
814  0
815  0
816  0
817  0
818  0
819  0
820  0
821  0
822  0
823  0
824  0
825  0
826  0
827  0
828  0
829  0
830  0
831  0
832  0
833  0
834  0
835  0
836  0
837  0
838  0
839  0
840  0
841  0
842  0
843  0
844  0
845  0
846  0
847  0
848  0
849  0
850  0
851  0
852  0
853  0
854  0
855  0
856  0
857  0
858  0
859  0
860  0
861  0
862  0
863  0
864  0
865  0
866  0
867  0
868  0
869  0
870  0
871  0
872  0
873  0
874  0
875  0
876  0
877  0
878  0
879  0
880  0
881  0
882  0
883  0
884  0
885  0
886  0
887  0
888  0
889  0
890  0
891  0
892  0
893  0
894  0
895  0
896  0
897  0
898  0
899  0
900  0
901  0
902  0
903  0
904  0
905  0
906  0
907  0
908  0
909  0
910  0
911  0
912  0
913  0
914  0
915  0
916  0
917  0
918  0
919  0
920  0
921  0
922  0
923  0
924  0
925  0
926  0
927  0
928  0
929  0
930  0
931  0
932  0
933  0
934  0
935  0
936  0
937  0
938  0
939  0
940  0
941  0
942  0
943  0
944  0
945  0
946  0
947  0
948  0
949  0
950  0
951  0
952  0
953  0
954  0
955  0
956  0
957  0
958  0
959  0
960  0
961  0
962  0
963  0
964  0
965  0
966  0
967  0
968  0
969  0
970  0
971  0
972  0
973  0
974  0
975  0
976  0
977  0
978  0
979  0
980  0
981  0
982  0
983  0
984  0
985  0
986  0
987  0
988  0
989  0
990  0
991  0
992  0
993  0
994  0
995  0
996  0
997  0
998  0
999  0
1000  0
1001  0
1002  0
1003  0
1004  0
1005  0
1006  0
1007  0
1008  0
1009  0
1010  0
1011  0
1012  0
1013  0
1014  0
1015  0
1016  0
1017  0
1018  0
1019  0
1020  0
1021  0
1022  0
1023  0
1024  0
1025  0
1026  0
1027  0
1028  0
1029  0
1030  0
1031  0
1032  0
1033  0
1034  0
1035  0
1036  0
1037  0
1038  0
1039  0
1040  0
1041  0
1042  0
1043  0
1044  0
1045  0
1046  0
1047  0
1048  0
1049  0
1050  0
1051  0
1052  0
1053  0
1054  0
1055  0
1056  0
1057  0
1058  0
1059  0
1060  0
1061  0
1062  0
1063  0
1064  0
1065  0
1066  0
1067  0
1068  0
1069  0
1070  0
1071  0
1072  0
1073  0
1074  0
1075  0
1076  0
1077  0
1078  0
1079  0
1080  0
1081  0
1082  0
1083  0
1084  0
1085  0
1086  0
1087  0
1088  0
1089  0
1090  0
1091  0
1092  0
1093  0
1094  0
1095  0
1096  0
1097  0
1098  0
1099  0
1100  0
1101  0
1102  0
1103  0
1104  0
1105  0
1106  0
1107  0
1108  0
1109  0
1110  0
1111  0
1112  0
1113  0
1114  0
1115  0
1116  0
1117  0
1118  0
1119  0
1120  0
1121  0
1122  0
1123  0
1124  0
1125  0
1126  0
1127  0
1128  0
1129  0
1130  0
1131  0
1132  0
1133  0
1134  0
1135  0
1136  0
1137  0
1138  0
1139  0
1140  0
1141  0
1142  0
1143  0
1144  0
1145  0
1146  0
1147  0
1148  0
1149  0
1150  0
1151  0
1152  0
1153  0
1154  0
1155  0
1156  0
1157  0
1158  0
1159  0
1160  0
1161  0
1162  0
1163  0
1164  0
1165  0
1166  0
1167  0
1168  0
1169  0
1170  0
1171  0
1172  0
1173  0
1174  0
1175  0
1176  0
1177  0
1178  0
1179  0
1180  0
1181  0
1182  0
1183  0
1184  0
1185  0
1186  0
1187  0
1188  0
1189  0
1190  0
1191  0
1192  0
1193  0
1194  0
1195  0
1196  0
1197  0
1198  0
1199  0
1200  0
1201  0
1202  0
1203  0
1204  0
1205  0
1206  0
1207  0
1208  0
1209  0
1210  0
1211  0
1212  0
1213  0
1214  0
1215  0
1216  0
1217  0
1218  0
1219  0
1220  0
1221  0
1222  0
1223  0
1224  0
1225  0
1226  0
1227  0
1228  0
1229  0
1230  0
1231  0
1232  0
1233  0
1234  0
1235  0
1236  0
1237  0
1238  0
1239  0
1240  0
1241  0
1242  0
1243  0
1244  0
1245  0
1246  0
1247  0
1248  0
1249  0
1250  0
1251  0
1252  0
1253  0
1254  0
1255  0
1256  0
1257  0
1258  0
1259  0
1260  0
1261  0
1262  0
1263  0
1264  0
1265  0
1266  0
1267  0
1268  0
1269  0
1270  0
1271  0
1272  0
1273  0
1274  0
1275  0
1276  0
1277  0
1278  0
1279  0
1280  0
1281  0
1282  0
1283  0
1284  0
1285  0
1286  0
1287  0
1288  0
1289  0
1290  0
1291  0
1292  0
1293  0
1294  0
1295  0
1296  0
1297  0
1298  0
1299  0
1300  0
1301  0
1302  0
1303  0
1304  0
1305  0
1306  0
1307  0
1308  0
1309  0
1310  0
1311  0
1312  0
1313  0
1314  0
1315  0
1316  0
1317  0
1318  0
1319  0
1320  0
1321  0
1322  0
1323  0
1324  0
1325  0
1326  0
1327  0
1328  0
1329  0
1330  0
1331  0
1332  0
1333  0
1334  0
1335  0
1336  0
1337  0
1338  0
1339  0
1340  0
1341  0
1342  0
1343  0
1344  0
1345  0
1346  0
1347  0
1348  0
1349  0
1350  0
1351  0
1352  0
1353  0
1354  0
1355  0
1356  0
1357  0
1358  0
1359  0
1360  0
1361  0
1362  0
1363  0
1364  0
1365  0
1366  0
1367  0
1368  0
1369  0
1370  0
1371  0
1372  0
1373  0
1374  0
1375  0
1376  0
1377  0
1378  0
1379  0
1380  0
1381  0
1382  0
1383  0
1384  0
1385  0
1386  0
1387  0
1388  0
1389  0
1390  0
1391  0
1392  0
1393  0
1394  0
1395  0
1396  0
1397  0
1398  0
1399  0
1400  0
1401  0
1402  0
1403  0
1404  0
1405  0
1406  0
1407  0
1408  0
1409  0
1410  0
1411  0
1412  0
1413  0
1414  0
1415  0
1416  0
1417  0
1418  0
1419  0
1420  0
1421  0
1422  0
1423  0
1424  0
1425  0
1426  0
1427  0
1428  0
1429  0
1430  0
1431  0
1432  0
1433  0
1434  0
1435  0
1436  0
1437  0
1438  0
1439  0
1440  0
1441  0
1442  0
1443  0
1444  0
1445  0
1446  0
1447  0
1448  0
1449  0
1450  0
1451  0
1452  0
1453  0
1454  0
1455  0
1456  0
1457  0
1458  0
1459  0
1460  0
1461  0
1462  0
1463  0
1464  0
1465  0
1466  0
1467  0
1468  0
1469  0
1470  0
1471  0
1472  0
1473  0
1474  0
1475  0
1476  0
1477  0
1478  0
1479  0
1480  0
1481  0
1482  0
1483  0
1484  0
1485  0
1486  0
1487  0
1488  0
1489  0
1490  0
1491  0
1492  0
1493  0
1494  0
1495  0
1496  0
1497  0
1498  0
1499  0
1500  0
1501  0
1502  0
1503  0
1504  0
1505  0
1506  0
1507  0
1508  0
1509  0
1510  0
1511  0
1512  0
1513  0
1514  0
1515  0
1516  0
1517  0
1518  0
1519  0
1520  0
1521  0
1522  0
1523  0
1524  0
1525  0
1526  0
1527  0
1528  0
1529  0
1530  0
1531  0
1532  0
1533  0
1534  0
1535  0
1536  0
1537  0
1538  0
1539  0
1540  0
1541  0
1542  0
1543  0
1544  0
1545  0
1546  0
1547  0
1548  0
1549  0
1550  0
1551  0
1552  0
1553  0
1554  0
1555  0
1556  0
1557  0
1558  0
1559  0
1560  0
1561  0
1562  0
1563  0
1564  0
1565  0
1566  0
1567  0
1568  0
1569  0
1570  0
1571  0
1572  0
1573  0
1574  0
1575  0
1576  0
1577  0
1578  0
1579  0
1580  0
1581  0
1582  0
1583  0
1584  0
1585  0
1586  0
1587  0
1588  0
1589  0
1590  0
1591  0
1592  0
1593  0
1594  0
1595  0
1596  0
1597  0
1598  3
1599  17
1600  60
1601  174
1602  564
1603  1371
1604  2526
1605  3329
1606  3705
1607  3800
1608  3672
1609  3440
1610  3379
1611  3175
1612  2997
1613  2897
1614  2803
1615  2598
1616  2560
1617  2418
1618  2409
1619  2239
1620  2089
1621  2037
1622  1942
1623  1835
1624  1765
1625  1716
1626  1593
1627  1525
1628  1483
1629  1389
1630  1334
1631  1269
1632  1150
1633  1176
1634  1165
1635  1115
1636  980
1637  948
1638  906
1639  934
1640  883
1641  807
1642  819
1643  804
1644  735
1645  664
1646  677
1647  631
1648  597
1649  621
1650  606
1651  576
1652  497
1653  503
1654  539
1655  485
1656  438
1657  456
1658  453
1659  406
1660  444
1661  363
1662  388
1663  371
1664  351
1665  352
1666  369
1667  354
1668  294
1669  315
1670  296
1671  287
1672  295
1673  239
1674  241
1675  247
1676  223
1677  234
1678  231
1679  195
1680  220
1681  191
1682  183
1683  216
1684  196
1685  192
1686  166
1687  194
1688  196
1689  152
1690  159
1691  180
1692  135
1693  153
1694  157
1695  144
1696  120
1697  138
1698  154
1699  118
1700  108
1701  115
1702  114
1703  130
1704  123
1705  122
1706  109
1707  104
1708  106
1709  97
1710  109
1711  105
1712  87
1713  99
1714  87
1715  96
1716  93
1717  70
1718  93
1719  95
1720  85
1721  77
1722  73
1723  82
1724  73
1725  75
1726  61
1727  61
1728  72
1729  68
1730  72
1731  77
1732  71
1733  56
1734  55
1735  72
1736  58
1737  64
1738  61
1739  59
1740  62
1741  65
1742  64
1743  48
1744  67
1745  51
1746  58
1747  63
1748  54
1749  61
1750  52
1751  66
1752  55
1753  66
1754  51
1755  57
1756  59
1757  70
1758  51
1759  65
1760  76
1761  58
1762  49
1763  55
1764  63
1765  67
1766  59
1767  67
1768  57
1769  53
1770  76
1771  68
1772  55
1773  62
1774  73
1775  91
1776  54
1777  73
1778  77
1779  71
1780  71
1781  76
1782  74
1783  75
1784  59
1785  91
1786  65
1787  85
1788  76
1789  73
1790  57
1791  95
1792  87
1793  77
1794  96
1795  85
1796  98
1797  94
1798  94
1799  97
1800  90
1801  88
1802  84
1803  85
1804  96
1805  97
1806  77
1807  87
1808  82
1809  132
1810  101
1811  112
1812  110
1813  99
1814  114
1815  107
1816  119
1817  132
1818  102
1819  115
1820  125
1821  108
1822  128
1823  142
1824  158
1825  151
1826  135
1827  144
1828  115
1829  136
1830  138
1831  143
1832  158
1833  168
1834  148
1835  136
1836  154
1837  155
1838  159
1839  145
1840  154
1841  150
1842  190
1843  199
1844  196
1845  171
1846  181
1847  192
1848  186
1849  170
1850  177
1851  212
1852  186
1853  171
1854  211
1855  195
1856  183
1857  219
1858  218
1859  214
1860  181
1861  213
1862  216
1863  233
1864  212
1865  223
1866  237
1867  244
1868  250
1869  233
1870  238
1871  241
1872  283
1873  265
1874  267
1875  250
1876  263
1877  267
1878  279
1879  296
1880  265
1881  290
1882  293
1883  308
1884  269
1885  298
1886  288
1887  275
1888  321
1889  328
1890  319
1891  301
1892  307
1893  329
1894  304
1895  317
1896  320
1897  353
1898  332
1899  346
1900  309
1901  311
1902  345
1903  356
1904  366
1905  355
1906  384
1907  346
1908  344
1909  356
1910  346
1911  349
1912  321
1913  356
1914  362
1915  407
1916  358
1917  332
1918  358
1919  413
1920  432
1921  389
1922  372
1923  415
1924  387
1925  375
1926  374
1927  385
1928  429
1929  388
1930  393
1931  413
1932  389
1933  426
1934  416
1935  436
1936  409
1937  420
1938  404
1939  438
1940  445
1941  437
1942  443
1943  422
1944  460
1945  436
1946  441
1947  435
1948  450
1949  456
1950  423
1951  470
1952  473
1953  456
1954  477
1955  486
1956  502
1957  472
1958  458
1959  485
1960  511
1961  481
1962  424
1963  468
1964  445
1965  512
1966  467
1967  454
1968  475
1969  418
1970  433
1971  481
1972  465
1973  505
1974  479
1975  478
1976  468
1977  441
1978  475
1979  498
1980  465
1981  508
1982  456
1983  489
1984  508
1985  487
1986  498
1987  470
1988  495
1989  473
1990  459
1991  487
1992  483
1993  483
1994  507
1995  477
1996  486
1997  481
1998  485
1999  481
2000  480
2001  499
2002  500
2003  455
2004  457
2005  544
2006  479
2007  471
2008  458
2009  524
2010  493
2011  483
2012  478
2013  476
2014  525
2015  467
2016  493
2017  528
2018  453
2019  479
2020  499
2021  461
2022  465
2023  471
2024  468
2025  484
2026  479
2027  456
2028  465
2029  486
2030  509
2031  440
2032  472
2033  458
2034  428
2035  444
2036  458
2037  457
2038  490
2039  411
2040  483
2041  422
2042  475
2043  456
2044  478
2045  446
2046  412
2047  457
2048  481
2049  451
2050  428
2051  440
2052  419
2053  469
2054  431
2055  387
2056  437
2057  419
2058  433
2059  469
2060  410
2061  430
2062  436
2063  440
2064  463
2065  477
2066  451
2067  407
2068  449
2069  412
2070  416
2071  420
2072  418
2073  426
2074  426
2075  428
2076  437
2077  478
2078  419
2079  415
2080  431
2081  384
2082  397
2083  387
2084  395
2085  394
2086  391
2087  416
2088  421
2089  427
2090  372
2091  394
2092  411
2093  376
2094  390
2095  350
2096  350
2097  379
2098  379
2099  377
2100  381
2101  398
2102  380
2103  368
2104  365
2105  373
2106  396
2107  335
2108  384
2109  355
2110  395
2111  346
2112  370
2113  369
2114  373
2115  337
2116  345
2117  373
2118  339
2119  334
2120  344
2121  355
2122  341
2123  353
2124  340
2125  343
2126  356
2127  324
2128  343
2129  335
2130  306
2131  316
2132  343
2133  334
2134  289
2135  349
2136  290
2137  280
2138  326
2139  315
2140  310
2141  325
2142  322
2143  311
2144  300
2145  265
2146  300
2147  312
2148  284
2149  285
2150  280
2151  285
2152  263
2153  274
2154  281
2155  313
2156  296
2157  270
2158  288
2159  290
2160  303
2161  282
2162  299
2163  277
2164  283
2165  293
2166  259
2167  251
2168  265
2169  257
2170  245
2171  292
2172  254
2173  266
2174  287
2175  255
2176  258
2177  259
2178  229
2179  262
2180  277
2181  268
2182  234
2183  243
2184  244
2185  240
2186  222
2187  234
2188  231
2189  271
2190  247
2191  256
2192  228
2193  233
2194  238
2195  226
2196  244
2197  260
2198  212
2199  218
2200  223
2201  239
2202  231
2203  212
2204  204
2205  220
2206  195
2207  191
2208  192
2209  221
2210  214
2211  219
2212  210
2213  201
2214  193
2215  196
2216  211
2217  208
2218  187
2219  183
2220  195
2221  188
2222  192
2223  181
2224  194
2225  213
2226  194
2227  196
2228  180
2229  162
2230  195
2231  173
2232  176
2233  176
2234  196
2235  163
2236  172
2237  192
2238  160
2239  169
2240  164
2241  165
2242  156
2243  154
2244  186
2245  146
2246  167
2247  149
2248  150
2249  146
2250  170
2251  161
2252  158
2253  152
2254  163
2255  168
2256  142
2257  151
2258  171
2259  160
2260  155
2261  128
2262  167
2263  145
2264  152
2265  149
2266  143
2267  152
2268  154
2269  161
2270  144
2271  144
2272  151
2273  148
2274  136
2275  126
2276  157
2277  138
2278  130
2279  143
2280  134
2281  155
2282  125
2283  127
2284  122
2285  121
2286  133
2287  124
2288  115
2289  130
2290  131
2291  131
2292  140
2293  134
2294  126
2295  143
2296  119
2297  132
2298  125
2299  130
2300  131
2301  120
2302  132
2303  123
2304  125
2305  135
2306  110
2307  114
2308  115
2309  115
2310  107
2311  123
2312  102
2313  121
2314  98
2315  119
2316  90
2317  105
2318  114
2319  112
2320  106
2321  105
2322  92
2323  125
2324  103
2325  101
2326  109
2327  86
2328  97
2329  87
2330  106
2331  110
2332  86
2333  98
2334  100
2335  97
2336  108
2337  92
2338  102
2339  92
2340  90
2341  99
2342  103
2343  78
2344  76
2345  77
2346  58
2347  104
2348  84
2349  73
2350  79
2351  90
2352  87
2353  82
2354  83
2355  85
2356  74
2357  67
2358  86
2359  80
2360  79
2361  74
2362  74
2363  69
2364  71
2365  67
2366  74
2367  85
2368  89
2369  80
2370  72
2371  75
2372  77
2373  64
2374  71
2375  80
2376  75
2377  75
2378  63
2379  70
2380  88
2381  68
2382  76
2383  68
2384  61
2385  47
2386  65
2387  73
2388  64
2389  73
2390  64
2391  61
2392  65
2393  69
2394  56
2395  62
2396  49
2397  61
2398  60
2399  58
2400  66
2401  64
2402  75
2403  65
2404  60
2405  65
2406  55
2407  67
2408  62
2409  69
2410  60
2411  58
2412  66
2413  72
2414  56
2415  61
2416  50
2417  48
2418  54
2419  53
2420  48
2421  58
2422  58
2423  42
2424  54
2425  53
2426  52
2427  60
2428  65
2429  52
2430  54
2431  49
2432  58
2433  61
2434  47
2435  54
2436  51
2437  49
2438  52
2439  45
2440  51
2441  58
2442  48
2443  49
2444  44
2445  50
2446  42
2447  43
2448  46
2449  40
2450  50
2451  44
2452  45
2453  38
2454  41
2455  50
2456  46
2457  36
2458  61
2459  43
2460  42
2461  26
2462  38
2463  52
2464  44
2465  40
2466  50
2467  39
2468  44
2469  33
2470  34
2471  45
2472  39
2473  45
2474  46
2475  43
2476  32
2477  37
2478  38
2479  39
2480  42
2481  26
2482  37
2483  28
2484  40
2485  37
2486  45
2487  38
2488  36
2489  40
2490  32
2491  28
2492  37
2493  27
2494  41
2495  23
2496  41
2497  38
2498  25
2499  37
2500  28
2501  25
2502  28
2503  35
2504  40
2505  39
2506  36
2507  40
2508  41
2509  33
2510  36
2511  36
2512  36
2513  36
2514  30
2515  41
2516  26
2517  33
2518  26
2519  34
2520  23
2521  30
2522  40
2523  23
2524  35
2525  38
2526  37
2527  28
2528  27
2529  26
2530  31
2531  33
2532  25
2533  33
2534  38
2535  34
2536  31
2537  26
2538  24
2539  30
2540  30
2541  28
2542  29
2543  29
2544  24
2545  39
2546  28
2547  21
2548  19
2549  26
2550  28
2551  37
2552  23
2553  25
2554  24
2555  25
2556  35
2557  32
2558  13
2559  26
2560  20
2561  26
2562  22
2563  20
2564  19
2565  30
2566  24
2567  24
2568  25
2569  32
2570  26
2571  20
2572  22
2573  15
2574  18
2575  27
2576  20
2577  25
2578  21
2579  29
2580  26
2581  17
2582  26
2583  24
2584  15
2585  32
2586  15
2587  24
2588  19
2589  13
2590  22
2591  15
2592  20
2593  18
2594  30
2595  21
2596  22
2597  21
2598  23
2599  27
2600  30
2601  17
2602  22
2603  25
2604  24
2605  14
2606  22
2607  23
2608  14
2609  18
2610  22
2611  19
2612  12
2613  22
2614  14
2615  17
2616  14
2617  18
2618  18
2619  24
2620  21
2621  19
2622  21
2623  26
2624  20
2625  22
2626  30
2627  19
2628  12
2629  18
2630  25
2631  18
2632  13
2633  17
2634  15
2635  22
2636  19
2637  11
2638  16
2639  16
2640  15
2641  9
2642  19
2643  15
2644  15
2645  13
2646  19
2647  10
2648  17
2649  20
2650  18
2651  18
2652  16
2653  23
2654  9
2655  17
2656  12
2657  12
2658  17
2659  15
2660  15
2661  15
2662  22
2663  16
2664  13
2665  21
2666  14
2667  6
2668  17
2669  15
2670  18
2671  18
2672  5
2673  15
2674  17
2675  15
2676  17
2677  16
2678  14
2679  11
2680  14
2681  15
2682  11
2683  18
2684  10
2685  15
2686  8
2687  6
2688  16
2689  14
2690  17
2691  8
2692  12
2693  13
2694  11
2695  12
2696  18
2697  16
2698  13
2699  7
2700  17
2701  13
2702  10
2703  12
2704  15
2705  11
2706  10
2707  10
2708  13
2709  10
2710  13
2711  12
2712  10
2713  10
2714  10
2715  8
2716  13
2717  11
2718  11
2719  7
2720  17
2721  11
2722  9
2723  12
2724  16
2725  10
2726  12
2727  11
2728  6
2729  8
2730  12
2731  7
2732  11
2733  10
2734  10
2735  11
2736  5
2737  12
2738  7
2739  4
2740  8
2741  11
2742  8
2743  7
2744  8
2745  14
2746  11
2747  13
2748  11
2749  11
2750  6
2751  17
2752  9
2753  9
2754  8
2755  12
2756  6
2757  14
2758  18
2759  7
2760  6
2761  6
2762  8
2763  12
2764  6
2765  12
2766  4
2767  10
2768  11
2769  7
2770  7
2771  6
2772  14
2773  9
2774  11
2775  15
2776  9
2777  7
2778  11
2779  7
2780  13
2781  4
2782  12
2783  5
2784  15
2785  7
2786  8
2787  8
2788  7
2789  10
2790  9
2791  6
2792  13
2793  8
2794  10
2795  11
2796  5
2797  14
2798  10
2799  10
2800  12
2801  10
2802  9
2803  9
2804  7
2805  7
2806  6
2807  10
2808  6
2809  8
2810  11
2811  6
2812  14
2813  7
2814  7
2815  8
2816  11
2817  8
2818  7
2819  9
2820  5
2821  9
2822  9
2823  11
2824  5
2825  2
2826  8
2827  5
2828  11
2829  4
2830  11
2831  10
2832  7
2833  5
2834  4
2835  14
2836  8
2837  4
2838  6
2839  12
2840  10
2841  7
2842  9
2843  10
2844  4
2845  7
2846  9
2847  7
2848  7
2849  4
2850  11
2851  5
2852  7
2853  8
2854  6
2855  1
2856  8
2857  1
2858  7
2859  6
2860  5
2861  13
2862  8
2863  4
2864  3
2865  5
2866  6
2867  8
2868  6
2869  12
2870  5
2871  4
2872  3
2873  8
2874  4
2875  6
2876  3
2877  8
2878  7
2879  2
2880  10
2881  5
2882  12
2883  5
2884  6
2885  7
2886  6
2887  5
2888  6
2889  8
2890  6
2891  5
2892  5
2893  8
2894  2
2895  4
2896  8
2897  11
2898  10
2899  9
2900  11
2901  2
2902  7
2903  7
2904  2
2905  4
2906  5
2907  3
2908  5
2909  4
2910  4
2911  8
2912  7
2913  5
2914  7
2915  11
2916  3
2917  6
2918  2
2919  13
2920  6
2921  4
2922  6
2923  6
2924  8
2925  6
2926  6
2927  9
2928  5
2929  8
2930  7
2931  5
2932  10
2933  6
2934  11
2935  3
2936  7
2937  1
2938  4
2939  5
2940  5
2941  6
2942  6
2943  3
2944  7
2945  6
2946  3
2947  3
2948  3
2949  4
2950  6
2951  7
2952  5
2953  6
2954  7
2955  4
2956  7
2957  6
2958  2
2959  4
2960  3
2961  4
2962  6
2963  2
2964  7
2965  2
2966  6
2967  2
2968  5
2969  4
2970  7
2971  4
2972  4
2973  7
2974  1
2975  4
2976  4
2977  6
2978  5
2979  4
2980  8
2981  2
2982  5
2983  3
2984  3
2985  6
2986  4
2987  3
2988  2
2989  7
2990  6
2991  4
2992  5
2993  2
2994  5
2995  9
2996  6
2997  4
2998  3
2999  3
3000  4
3001  5
3002  4
3003  6
3004  10
3005  6
3006  9
3007  4
3008  7
3009  4
3010  6
3011  5
3012  5
3013  5
3014  3
3015  5
3016  2
3017  3
3018  4
3019  3
3020  5
3021  7
3022  3
3023  2
3024  5
3025  1
3026  5
3027  3
3028  4
3029  4
3030  5
3031  4
3032  4
3033  2
3034  5
3035  3
3036  2
3037  4
3038  3
3039  2
3040  2
3041  3
3042  4
3043  6
3044  2
3045  4
3046  4
3047  7
3048  3
3049  6
3050  4
3051  4
3052  3
3053  6
3054  6
3055  3
3056  2
3057  4
3058  2
3059  4
3060  0
3061  8
3062  8
3063  3
3064  5
3065  7
3066  4
3067  5
3068  6
3069  5
3070  5
3071  4
3072  1
3073  2
3074  3
3075  7
3076  5
3077  5
3078  3
3079  3
3080  6
3081  3
3082  7
3083  5
3084  4
3085  1
3086  3
3087  5
3088  5
3089  3
3090  5
3091  3
3092  7
3093  4
3094  3
3095  8
3096  4
3097  4
3098  2
3099  2
3100  1
3101  3
3102  0
3103  3
3104  2
3105  3
3106  6
3107  2
3108  6
3109  4
3110  0
3111  6
3112  5
3113  4
3114  3
3115  3
3116  4
3117  3
3118  1
3119  2
3120  4
3121  4
3122  4
3123  2
3124  5
3125  5
3126  8
3127  3
3128  2
3129  7
3130  3
3131  0
3132  7
3133  1
3134  7
3135  4
3136  3
3137  5
3138  5
3139  0
3140  4
3141  5
3142  5
3143  7
3144  4
3145  2
3146  3
3147  2
3148  0
3149  2
3150  2
3151  5
3152  4
3153  2
3154  4
3155  2
3156  3
3157  8
3158  5
3159  2
3160  5
3161  4
3162  2
3163  3
3164  3
3165  1
3166  5
3167  5
3168  6
3169  2
3170  7
3171  3
3172  2
3173  4
3174  2
3175  4
3176  2
3177  3
3178  3
3179  1
3180  5
3181  6
3182  3
3183  3
3184  3
3185  0
3186  4
3187  4
3188  2
3189  2
3190  3
3191  3
3192  1
3193  3
3194  10
3195  1
3196  1
3197  3
3198  1
3199  4
3200  2
3201  4
3202  4
3203  3
3204  4
3205  1
3206  3
3207  6
3208  4
3209  2
3210  4
3211  4
3212  5
3213  3
3214  1
3215  3
3216  4
3217  4
3218  2
3219  4
3220  2
3221  4
3222  2
3223  4
3224  2
3225  3
3226  2
3227  0
3228  5
3229  2
3230  1
3231  5
3232  1
3233  2
3234  4
3235  6
3236  3
3237  3
3238  4
3239  3
3240  5
3241  2
3242  2
3243  4
3244  0
3245  3
3246  2
3247  1
3248  2
3249  1
3250  1
3251  1
3252  3
3253  2
3254  4
3255  5
3256  3
3257  0
3258  2
3259  4
3260  5
3261  7
3262  1
3263  3
3264  5
3265  0
3266  2
3267  3
3268  6
3269  5
3270  4
3271  1
3272  2
3273  2
3274  5
3275  2
3276  4
3277  6
3278  5
3279  4
3280  3
3281  4
3282  1
3283  5
3284  2
3285  6
3286  1
3287  3
3288  2
3289  2
3290  1
3291  2
3292  0
3293  2
3294  4
3295  3
3296  4
3297  1
3298  3
3299  2
3300  2
3301  3
3302  6
3303  5
3304  1
3305  2
3306  2
3307  2
3308  4
3309  1
3310  1
3311  2
3312  3
3313  4
3314  2
3315  3
3316  3
3317  3
3318  4
3319  2
3320  6
3321  5
3322  3
3323  3
3324  1
3325  5
3326  4
3327  2
3328  0
3329  2
3330  2
3331  3
3332  1
3333  3
3334  2
3335  2
3336  5
3337  2
3338  4
3339  3
3340  0
3341  4
3342  4
3343  4
3344  1
3345  3
3346  3
3347  3
3348  1
3349  5
3350  3
3351  2
3352  5
3353  2
3354  3
3355  3
3356  2
3357  3
3358  3
3359  1
3360  4
3361  4
3362  2
3363  8
3364  6
3365  1
3366  2
3367  3
3368  3
3369  2
3370  4
3371  0
3372  2
3373  3
3374  3
3375  4
3376  1
3377  0
3378  2
3379  4
3380  1
3381  5
3382  2
3383  6
3384  2
3385  3
3386  2
3387  1
3388  1
3389  3
3390  2
3391  1
3392  1
3393  7
3394  2
3395  0
3396  1
3397  2
3398  3
3399  4
3400  4
3401  3
3402  3
3403  4
3404  2
3405  1
3406  0
3407  3
3408  2
3409  0
3410  1
3411  4
3412  1
3413  1
3414  2
3415  2
3416  0
3417  5
3418  0
3419  1
3420  1
3421  4
3422  3
3423  4
3424  3
3425  1
3426  2
3427  0
3428  2
3429  1
3430  2
3431  1
3432  6
3433  1
3434  2
3435  2
3436  2
3437  0
3438  1
3439  3
3440  3
3441  1
3442  3
3443  3
3444  3
3445  2
3446  3
3447  0
3448  1
3449  1
3450  4
3451  5
3452  4
3453  1
3454  1
3455  2
3456  0
3457  2
3458  2
3459  2
3460  0
3461  2
3462  1
3463  2
3464  1
3465  5
3466  3
3467  3
3468  1
3469  1
3470  0
3471  1
3472  4
3473  1
3474  5
3475  5
3476  0
3477  1
3478  2
3479  3
3480  2
3481  1
3482  1
3483  3
3484  1
3485  1
3486  2
3487  1
3488  1
3489  2
3490  2
3491  1
3492  3
3493  2
3494  0
3495  4
3496  2
3497  2
3498  3
3499  4
3500  2
3501  4
3502  1
3503  3
3504  5
3505  4
3506  4
3507  1
3508  2
3509  2
3510  3
3511  1
3512  1
3513  0
3514  4
3515  1
3516  4
3517  4
3518  2
3519  2
3520  2
3521  3
3522  2
3523  3
3524  2
3525  1
3526  2
3527  5
3528  4
3529  1
3530  2
3531  1
3532  2
3533  1
3534  3
3535  0
3536  1
3537  1
3538  1
3539  5
3540  0
3541  1
3542  2
3543  3
3544  4
3545  6
3546  4
3547  0
3548  4
3549  3
3550  1
3551  1
3552  2
3553  2
3554  4
3555  3
3556  2
3557  3
3558  3
3559  2
3560  2
3561  5
3562  0
3563  2
3564  1
3565  2
3566  3
3567  2
3568  1
3569  1
3570  4
3571  2
3572  3
3573  2
3574  2
3575  1
3576  3
3577  0
3578  5
3579  3
3580  2
3581  2
3582  4
3583  2
3584  3
3585  2
3586  2
3587  2
3588  5
3589  3
3590  2
3591  1
3592  2
3593  0
3594  1
3595  1
3596  2
3597  2
3598  1
3599  2
3600  2
3601  1
3602  3
3603  2
3604  3
3605  4
3606  5
3607  2
3608  2
3609  1
3610  3
3611  1
3612  2
3613  5
3614  2
3615  2
3616  0
3617  5
3618  3
3619  1
3620  3
3621  0
3622  3
3623  3
3624  1
3625  1
3626  3
3627  1
3628  2
3629  3
3630  4
3631  5
3632  3
3633  2
3634  3
3635  5
3636  2
3637  4
3638  2
3639  1
3640  1
3641  0
3642  2
3643  3
3644  1
3645  1
3646  3
3647  2
3648  2
3649  1
3650  4
3651  1
3652  3
3653  1
3654  4
3655  5
3656  4
3657  1
3658  1
3659  1
3660  0
3661  3
3662  4
3663  3
3664  4
3665  2
3666  5
3667  3
3668  7
3669  2
3670  1
3671  4
3672  3
3673  2
3674  1
3675  3
3676  2
3677  0
3678  2
3679  3
3680  1
3681  2
3682  0
3683  4
3684  3
3685  1
3686  3
3687  2
3688  1
3689  2
3690  4
3691  2
3692  1
3693  2
3694  7
3695  0
3696  3
3697  3
3698  3
3699  2
3700  1
3701  2
3702  1
3703  4
3704  5
3705  0
3706  4
3707  3
3708  1
3709  0
3710  2
3711  0
3712  1
3713  0
3714  2
3715  0
3716  2
3717  0
3718  7
3719  3
3720  1
3721  4
3722  2
3723  1
3724  3
3725  2
3726  2
3727  1
3728  5
3729  1
3730  1
3731  3
3732  3
3733  1
3734  3
3735  2
3736  2
3737  2
3738  3
3739  0
3740  1
3741  1
3742  2
3743  2
3744  4
3745  3
3746  5
3747  3
3748  1
3749  3
3750  1
3751  0
3752  1
3753  1
3754  4
3755  2
3756  4
3757  2
3758  3
3759  2
3760  2
3761  2
3762  0
3763  1
3764  2
3765  2
3766  2
3767  1
3768  9
3769  2
3770  3
3771  0
3772  4
3773  0
3774  2
3775  1
3776  3
3777  2
3778  2
3779  2
3780  2
3781  2
3782  3
3783  2
3784  1
3785  2
3786  2
3787  1
3788  4
3789  4
3790  1
3791  2
3792  1
3793  3
3794  0
3795  3
3796  3
3797  2
3798  1
3799  3
3800  1
3801  3
3802  1
3803  2
3804  2
3805  5
3806  0
3807  0
3808  2
3809  1
3810  2
3811  7
3812  0
3813  0
3814  0
3815  0
3816  1
3817  1
3818  2
3819  1
3820  1
3821  3
3822  0
3823  2
3824  0
3825  1
3826  2
3827  1
3828  2
3829  2
3830  2
3831  2
3832  3
3833  2
3834  2
3835  4
3836  3
3837  1
3838  0
3839  4
3840  0
3841  0
3842  0
3843  0
3844  0
3845  0
3846  0
3847  0
3848  0
3849  0
3850  0
3851  0
3852  0
3853  0
3854  0
3855  0
3856  0
3857  0
3858  0
3859  0
3860  0
3861  0
3862  0
3863  0
3864  0
3865  0
3866  0
3867  0
3868  0
3869  0
3870  0
3871  0
3872  0
3873  0
3874  0
3875  0
3876  0
3877  0
3878  0
3879  0
3880  0
3881  0
3882  0
3883  0
3884  0
3885  0
3886  0
3887  0
3888  0
3889  0
3890  0
3891  0
3892  0
3893  0
3894  0
3895  0
3896  0
3897  0
3898  0
3899  0
3900  0
3901  0
3902  0
3903  0
3904  0
3905  0
3906  0
3907  0
3908  0
3909  0
3910  0
3911  0
3912  0
3913  0
3914  0
3915  0
3916  0
3917  0
3918  0
3919  0
3920  0
3921  0
3922  0
3923  0
3924  0
3925  0
3926  0
3927  0
3928  0
3929  0
3930  0
3931  0
3932  0
3933  0
3934  0
3935  0
3936  0
3937  0
3938  0
3939  0
3940  0
3941  0
3942  0
3943  0
3944  0
3945  0
3946  0
3947  0
3948  0
3949  0
3950  0
3951  0
3952  0
3953  0
3954  0
3955  0
3956  0
3957  0
3958  0
3959  0
3960  0
3961  0
3962  0
3963  0
3964  0
3965  0
3966  0
3967  0
3968  0
3969  0
3970  0
3971  0
3972  0
3973  0
3974  0
3975  0
3976  0
3977  0
3978  0
3979  0
3980  0
3981  0
3982  0
3983  0
3984  0
3985  0
3986  0
3987  0
3988  0
3989  0
3990  0
3991  0
3992  0
3993  0
3994  0
3995  0
3996  0
3997  0
3998  0
3999  0
4000  0
4001  0
4002  0
4003  0
4004  0
4005  0
4006  0
4007  0
4008  0
4009  0
4010  0
4011  0
4012  0
4013  0
4014  0
4015  0
4016  0
4017  0
4018  0
4019  0
4020  0
4021  0
4022  0
4023  0
4024  0
4025  0
4026  0
4027  0
4028  0
4029  0
4030  0
4031  0
4032  0
4033  0
4034  0
4035  0
4036  0
4037  0
4038  0
4039  0
4040  0
4041  0
4042  0
4043  0
4044  0
4045  0
4046  0
4047  0
4048  0
4049  0
4050  0
4051  0
4052  0
4053  0
4054  0
4055  0
4056  0
4057  0
4058  0
4059  0
4060  0
4061  0
4062  0
4063  0
4064  0
4065  0
4066  0
4067  0
4068  0
4069  0
4070  0
4071  0
4072  0
4073  0
4074  0
4075  0
4076  0
4077  0
4078  0
4079  0
4080  0
4081  0
4082  0
4083  0
4084  0
4085  0
4086  0
4087  0
4088  0
4089  0
4090  0
4091  0
4092  0
4093  0
4094  0
4095  0
