0  388
1  427
2  531
3  608
4  709
5  849
6  881
7  1011
8  1152
9  1266
10  1305
11  1390
12  1506
13  1531
14  1562
15  1538
16  1638
17  1509
18  1450
19  1398
20  1374
21  1305
22  1166
23  1092
24  955
25  823
26  727
27  622
28  543
29  467
30  344
31  280
32  263
33  215
34  139
35  132
36  103
37  77
38  57
39  33
40  29
41  24
42  20
43  14
44  9
45  8
46  7
47  1
48  3
49  1
50  1
51  2
52  0
53  0
54  1
55  0
56  0
57  0
58  0
59  0
60  0
61  0
62  0
63  0
64  0
65  0
66  0
67  0
68  0
69  0
70  0
71  0
72  0
73  0
74  1
75  0
76  0
77  0
78  0
79  0
80  0
81  0
82  0
83  0
84  0
85  0
86  0
87  0
88  0
89  0
90  0
91  0
92  0
93  0
94  0
95  0
96  0
97  0
98  0
99  0
100  0
101  0
102  0
103  0
104  0
105  0
106  0
107  0
108  0
109  0
110  0
111  0
112  0
113  0
114  0
115  0
116  0
117  0
118  0
119  0
120  0
121  0
122  0
123  0
124  0
125  1
126  0
127  0
128  0
129  0
130  0
131  0
132  0
133  0
134  0
135  0
136  0
137  0
138  0
139  0
140  0
141  0
142  0
143  0
144  0
145  0
146  0
147  0
148  0
149  0
150  0
151  0
152  0
153  0
154  0
155  0
156  0
157  0
158  0
159  0
160  0
161  0
162  0
163  0
164  0
165  0
166  0
167  0
168  0
169  0
170  0
171  0
172  0
173  0
174  0
175  0
176  0
177  0
178  0
179  0
180  0
181  0
182  0
183  0
184  0
185  0
186  0
187  0
188  0
189  0
190  0
191  1
192  0
193  1
194  1
195  2
196  0
197  3
198  3
199  3
200  3
201  8
202  7
203  16
204  17
205  17
206  24
207  30
208  23
209  42
210  41
211  43
212  42
213  42
214  51
215  45
216  38
217  59
218  72
219  62
220  66
221  55
222  72
223  54
224  67
225  59
226  50
227  60
228  67
229  39
230  42
231  38
232  41
233  31
234  33
235  32
236  23
237  25
238  20
239  14
240  21
241  22
242  15
243  11
244  16
245  27
246  16
247  6
248  16
249  12
250  13
251  15
252  13
253  10
254  15
255  11
256  13
257  19
258  19
259  19
260  16
261  7
262  9
263  18
264  8
265  19
266  12
267  9
268  11
269  9
270  15
271  15
272  13
273  12
274  17
275  14
276  12
277  20
278  12
279  14
280  19
281  7
282  10
283  16
284  12
285  11
286  16
287  17
288  10
289  13
290  14
291  16
292  10
293  11
294  12
295  10
296  12
297  14
298  23
299  11
300  14
301  11
302  7
303  14
304  14
305  11
306  8
307  16
308  8
309  10
310  13
311  14
312  11
313  13
314  11
315  12
316  12
317  9
318  7
319  13
320  14
321  11
322  8
323  8
324  15
325  14
326  6
327  20
328  10
329  19
330  12
331  16
332  10
333  9
334  15
335  14
336  13
337  16
338  12
339  14
340  19
341  12
342  15
343  16
344  25
345  12
346  8
347  16
348  11
349  13
350  6
351  18
352  10
353  12
354  17
355  9
356  18
357  11
358  11
359  13
360  8
361  14
362  17
363  20
364  11
365  12
366  16
367  8
368  11
369  13
370  10
371  12
372  9
373  10
374  9
375  13
376  11
377  10
378  6
379  16
380  8
381  7
382  17
383  13
384  6
385  12
386  16
387  8
388  6
389  8
390  13
391  21
392  13
393  17
394  11
395  9
396  20
397  14
398  16
399  12
400  8
401  11
402  10
403  12
404  9
405  12
406  6
407  11
408  7
409  13
410  8
411  14
412  13
413  13
414  12
415  10
416  15
417  10
418  12
419  10
420  11
421  13
422  13
423  11
424  12
425  10
426  8
427  15
428  13
429  12
430  14
431  11
432  13
433  13
434  7
435  7
436  8
437  18
438  11
439  13
440  8
441  13
442  11
443  18
444  8
445  14
446  6
447  19
448  11
449  9
450  16
451  15
452  5
453  12
454  12
455  9
456  13
457  17
458  8
459  16
460  14
461  8
462  14
463  12
464  18
465  11
466  16
467  10
468  11
469  16
470  14
471  9
472  10
473  9
474  12
475  9
476  9
477  12
478  9
479  16
480  12
481  14
482  14
483  6
484  9
485  6
486  13
487  13
488  11
489  11
490  14
491  10
492  10
493  11
494  6
495  15
496  10
497  14
498  17
499  8
500  15
501  11
502  16
503  15
504  12
505  12
506  6
507  9
508  15
509  12
510  12
511  14
512  11
513  17
514  9
515  14
516  10
517  10
518  11
519  11
520  5
521  9
522  9
523  14
524  17
525  9
526  10
527  14
528  14
529  13
530  7
531  15
532  14
533  17
534  18
535  9
536  11
537  12
538  12
539  10
540  10
541  10
542  16
543  14
544  15
545  9
546  14
547  11
548  15
549  9
550  7
551  16
552  8
553  18
554  6
555  9
556  13
557  8
558  16
559  12
560  9
561  14
562  17
563  14
564  12
565  11
566  19
567  19
568  17
569  15
570  10
571  9
572  9
573  13
574  3
575  14
576  9
577  12
578  9
579  8
580  9
581  12
582  11
583  11
584  8
585  9
586  16
587  12
588  8
589  13
590  8
591  13
592  8
593  11
594  19
595  18
596  10
597  9
598  10
599  18
600  15
601  6
602  9
603  18
604  13
605  16
606  13
607  14
608  8
609  15
610  13
611  12
612  11
613  12
614  9
615  10
616  15
617  11
618  10
619  12
620  16
621  14
622  9
623  6
624  7
625  12
626  8
627  13
628  9
629  9
630  15
631  11
632  22
633  12
634  13
635  19
636  13
637  13
638  15
639  12
640  10
641  10
642  17
643  7
644  13
645  6
646  8
647  14
648  14
649  12
650  8
651  12
652  6
653  10
654  8
655  10
656  15
657  11
658  12
659  13
660  11
661  9
662  9
663  9
664  17
665  16
666  18
667  15
668  8
669  17
670  15
671  12
672  13
673  7
674  13
675  14
676  10
677  15
678  15
679  20
680  11
681  10
682  9
683  14
684  12
685  7
686  11
687  13
688  9
689  16
690  9
691  11
692  15
693  10
694  16
695  12
696  11
697  18
698  15
699  10
700  11
701  6
702  16
703  12
704  13
705  14
706  7
707  15
708  17
709  11
710  5
711  15
712  16
713  14
714  15
715  4
716  10
717  18
718  13
719  12
720  8
721  14
722  13
723  10
724  17
725  16
726  10
727  10
728  9
729  8
730  13
731  10
732  11
733  10
734  7
735  19
736  11
737  10
738  19
739  15
740  15
741  14
742  14
743  11
744  14
745  13
746  12
747  8
748  21
749  16
750  12
751  11
752  15
753  10
754  12
755  13
756  14
757  9
758  13
759  17
760  10
761  9
762  15
763  13
764  17
765  15
766  11
767  9
768  12
769  13
770  11
771  14
772  15
773  10
774  13
775  3
776  17
777  10
778  10
779  13
780  13
781  13
782  18
783  21
784  15
785  12
786  14
787  12
788  12
789  12
790  7
791  14
792  13
793  13
794  7
795  3
796  13
797  14
798  13
799  16
800  14
801  16
802  11
803  13
804  18
805  4
806  10
807  22
808  16
809  2
810  27
811  11
812  13
813  15
814  21
815  11
816  15
817  14
818  16
819  12
820  12
821  11
822  10
823  11
824  9
825  8
826  12
827  12
828  10
829  10
830  10
831  12
832  5
833  10
834  9
835  14
836  14
837  12
838  10
839  10
840  13
841  8
842  13
843  9
844  15
845  18
846  12
847  12
848  10
849  12
850  14
851  11
852  10
853  8
854  6
855  11
856  19
857  13
858  10
859  7
860  9
861  16
862  13
863  16
864  7
865  14
866  10
867  7
868  14
869  12
870  7
871  14
872  16
873  9
874  12
875  7
876  17
877  11
878  11
879  13
880  11
881  19
882  11
883  15
884  15
885  10
886  13
887  10
888  11
889  9
890  17
891  5
892  7
893  17
894  8
895  10
896  8
897  12
898  9
899  12
900  13
901  13
902  11
903  18
904  11
905  11
906  17
907  11
908  12
909  9
910  12
911  12
912  15
913  13
914  13
915  8
916  16
917  15
918  11
919  7
920  6
921  3
922  19
923  18
924  9
925  15
926  11
927  9
928  10
929  14
930  21
931  16
932  11
933  14
934  19
935  11
936  12
937  10
938  14
939  7
940  11
941  15
942  14
943  11
944  17
945  8
946  6
947  13
948  7
949  12
950  16
951  6
952  14
953  13
954  16
955  9
956  11
957  10
958  14
959  8
960  10
961  7
962  8
963  15
964  15
965  13
966  13
967  12
968  9
969  11
970  14
971  15
972  19
973  13
974  11
975  9
976  4
977  19
978  13
979  10
980  17
981  9
982  11
983  8
984  8
985  6
986  12
987  13
988  10
989  10
990  10
991  12
992  5
993  9
994  6
995  15
996  6
997  12
998  13
999  8
1000  13
1001  14
1002  13
1003  12
1004  9
1005  10
1006  16
1007  9
1008  14
1009  14
1010  12
1011  15
1012  15
1013  15
1014  20
1015  18
1016  15
1017  13
1018  10
1019  16
1020  14
1021  11
1022  6
1023  12
1024  12
1025  8
1026  14
1027  14
1028  11
1029  9
1030  20
1031  11
1032  11
1033  13
1034  10
1035  9
1036  17
1037  15
1038  10
1039  11
1040  14
1041  16
1042  11
1043  8
1044  18
1045  14
1046  9
1047  16
1048  10
1049  9
1050  7
1051  15
1052  14
1053  10
1054  16
1055  11
1056  16
1057  13
1058  11
1059  16
1060  12
1061  12
1062  17
1063  13
1064  9
1065  14
1066  8
1067  15
1068  17
1069  14
1070  7
1071  23
1072  19
1073  14
1074  17
1075  12
1076  12
1077  14
1078  12
1079  9
1080  11
1081  15
1082  18
1083  11
1084  20
1085  15
1086  11
1087  16
1088  10
1089  13
1090  9
1091  11
1092  14
1093  14
1094  12
1095  15
1096  13
1097  13
1098  16
1099  12
1100  16
1101  14
1102  12
1103  10
1104  12
1105  20
1106  12
1107  16
1108  10
1109  10
1110  16
1111  14
1112  12
1113  14
1114  17
1115  14
1116  10
1117  13
1118  16
1119  6
1120  14
1121  13
1122  12
1123  10
1124  9
1125  11
1126  16
1127  15
1128  17
1129  13
1130  16
1131  14
1132  13
1133  10
1134  17
1135  14
1136  15
1137  12
1138  11
1139  10
1140  17
1141  15
1142  14
1143  14
1144  11
1145  11
1146  18
1147  19
1148  10
1149  15
1150  8
1151  15
1152  13
1153  10
1154  10
1155  20
1156  10
1157  9
1158  16
1159  14
1160  12
1161  9
1162  17
1163  12
1164  12
1165  19
1166  9
1167  10
1168  16
1169  8
1170  11
1171  18
1172  13
1173  13
1174  18
1175  8
1176  16
1177  13
1178  16
1179  8
1180  13
1181  11
1182  8
1183  13
1184  12
1185  13
1186  14
1187  11
1188  16
1189  13
1190  18
1191  17
1192  16
1193  8
1194  11
1195  13
1196  10
1197  17
1198  10
1199  10
1200  11
1201  8
1202  8
1203  14
1204  15
1205  11
1206  6
1207  12
1208  16
1209  10
1210  11
1211  22
1212  18
1213  9
1214  13
1215  15
1216  11
1217  16
1218  7
1219  12
1220  13
1221  14
1222  11
1223  18
1224  22
1225  9
1226  11
1227  10
1228  12
1229  8
1230  15
1231  13
1232  12
1233  13
1234  18
1235  12
1236  18
1237  15
1238  11
1239  15
1240  20
1241  16
1242  14
1243  14
1244  8
1245  14
1246  22
1247  14
1248  16
1249  21
1250  14
1251  13
1252  13
1253  18
1254  9
1255  13
1256  17
1257  16
1258  8
1259  8
1260  12
1261  12
1262  10
1263  16
1264  10
1265  17
1266  19
1267  10
1268  8
1269  12
1270  9
1271  16
1272  12
1273  15
1274  20
1275  14
1276  13
1277  11
1278  10
1279  14
1280  13
1281  13
1282  16
1283  10
1284  15
1285  18
1286  11
1287  21
1288  17
1289  6
1290  15
1291  13
1292  13
1293  19
1294  11
1295  22
1296  15
1297  16
1298  5
1299  15
1300  11
1301  18
1302  16
1303  12
1304  13
1305  17
1306  16
1307  15
1308  13
1309  16
1310  19
1311  10
1312  9
1313  15
1314  22
1315  12
1316  22
1317  22
1318  10
1319  17
1320  21
1321  17
1322  18
1323  19
1324  13
1325  13
1326  27
1327  9
1328  13
1329  15
1330  18
1331  20
1332  14
1333  10
1334  15
1335  14
1336  15
1337  17
1338  14
1339  14
1340  19
1341  12
1342  12
1343  13
1344  19
1345  10
1346  23
1347  10
1348  18
1349  15
1350  9
1351  14
1352  8
1353  12
1354  14
1355  16
1356  14
1357  19
1358  12
1359  19
1360  9
1361  17
1362  16
1363  14
1364  18
1365  11
1366  18
1367  20
1368  17
1369  14
1370  16
1371  17
1372  12
1373  17
1374  22
1375  20
1376  15
1377  13
1378  14
1379  20
1380  12
1381  19
1382  15
1383  12
1384  14
1385  26
1386  22
1387  14
1388  10
1389  16
1390  19
1391  17
1392  14
1393  19
1394  11
1395  17
1396  15
1397  11
1398  10
1399  19
1400  15
1401  15
1402  24
1403  15
1404  18
1405  15
1406  13
1407  23
1408  21
1409  18
1410  22
1411  18
1412  12
1413  22
1414  11
1415  22
1416  16
1417  13
1418  20
1419  14
1420  12
1421  15
1422  11
1423  15
1424  11
1425  16
1426  21
1427  18
1428  18
1429  18
1430  21
1431  22
1432  20
1433  19
1434  20
1435  13
1436  18
1437  23
1438  18
1439  21
1440  23
1441  16
1442  20
1443  19
1444  18
1445  12
1446  18
1447  29
1448  21
1449  25
1450  17
1451  23
1452  20
1453  22
1454  19
1455  25
1456  18
1457  20
1458  25
1459  15
1460  18
1461  24
1462  18
1463  26
1464  21
1465  24
1466  26
1467  17
1468  22
1469  34
1470  26
1471  25
1472  18
1473  28
1474  33
1475  25
1476  29
1477  15
1478  15
1479  21
1480  26
1481  24
1482  22
1483  22
1484  20
1485  27
1486  17
1487  28
1488  36
1489  25
1490  29
1491  23
1492  21
1493  25
1494  24
1495  26
1496  23
1497  23
1498  25
1499  31
1500  34
1501  22
1502  26
1503  26
1504  29
1505  32
1506  22
1507  25
1508  21
1509  28
1510  25
1511  23
1512  33
1513  19
1514  31
1515  25
1516  26
1517  34
1518  31
1519  19
1520  29
1521  32
1522  39
1523  29
1524  29
1525  28
1526  33
1527  36
1528  25
1529  29
1530  30
1531  26
1532  40
1533  31
1534  23
1535  35
1536  35
1537  34
1538  26
1539  30
1540  20
1541  32
1542  38
1543  27
1544  30
1545  28
1546  30
1547  28
1548  35
1549  26
1550  29
1551  25
1552  24
1553  26
1554  25
1555  37
1556  34
1557  28
1558  31
1559  29
1560  33
1561  29
1562  28
1563  38
1564  37
1565  36
1566  24
1567  33
1568  41
1569  35
1570  43
1571  35
1572  25
1573  32
1574  36
1575  33
1576  20
1577  31
1578  33
1579  39
1580  31
1581  33
1582  36
1583  28
1584  35
1585  35
1586  26
1587  33
1588  32
1589  37
1590  29
1591  32
1592  29
1593  34
1594  26
1595  32
1596  28
1597  26
1598  42
1599  33
1600  24
1601  35
1602  31
1603  26
1604  37
1605  39
1606  36
1607  29
1608  29
1609  25
1610  29
1611  35
1612  35
1613  34
1614  31
1615  34
1616  26
1617  32
1618  30
1619  29
1620  30
1621  29
1622  24
1623  23
1624  27
1625  28
1626  32
1627  26
1628  27
1629  31
1630  24
1631  22
1632  36
1633  42
1634  26
1635  40
1636  34
1637  29
1638  25
1639  27
1640  31
1641  29
1642  24
1643  23
1644  28
1645  20
1646  37
1647  37
1648  35
1649  34
1650  26
1651  31
1652  30
1653  16
1654  31
1655  31
1656  26
1657  28
1658  24
1659  29
1660  32
1661  33
1662  34
1663  34
1664  32
1665  31
1666  34
1667  37
1668  29
1669  25
1670  40
1671  33
1672  36
1673  27
1674  45
1675  36
1676  41
1677  31
1678  40
1679  36
1680  39
1681  40
1682  39
1683  49
1684  53
1685  49
1686  55
1687  47
1688  51
1689  47
1690  57
1691  69
1692  67
1693  76
1694  93
1695  73
1696  88
1697  105
1698  93
1699  95
1700  107
1701  105
1702  123
1703  104
1704  156
1705  149
1706  147
1707  152
1708  150
1709  156
1710  195
1711  200
1712  216
1713  232
1714  229
1715  226
1716  240
1717  271
1718  290
1719  296
1720  314
1721  315
1722  312
1723  352
1724  338
1725  352
1726  362
1727  386
1728  377
1729  379
1730  429
1731  409
1732  407
1733  428
1734  447
1735  405
1736  461
1737  457
1738  501
1739  467
1740  502
1741  464
1742  517
1743  522
1744  517
1745  530
1746  489
1747  538
1748  513
1749  528
1750  565
1751  575
1752  572
1753  508
1754  560
1755  546
1756  559
1757  556
1758  549
1759  567
1760  573
1761  533
1762  502
1763  515
1764  506
1765  482
1766  462
1767  500
1768  507
1769  458
1770  473
1771  449
1772  428
1773  430
1774  391
1775  371
1776  372
1777  364
1778  346
1779  362
1780  350
1781  320
1782  301
1783  289
1784  272
1785  277
1786  267
1787  232
1788  222
1789  220
1790  206
1791  214
1792  220
1793  170
1794  167
1795  179
1796  151
1797  184
1798  136
1799  151
1800  154
1801  139
1802  130
1803  114
1804  115
1805  100
1806  80
1807  90
1808  74
1809  77
1810  78
1811  84
1812  74
1813  55
1814  53
1815  74
1816  51
1817  39
1818  48
1819  55
1820  40
1821  68
1822  76
1823  51
1824  58
1825  54
1826  48
1827  53
1828  72
1829  65
1830  74
1831  84
1832  96
1833  123
1834  147
1835  169
1836  193
1837  222
1838  307
1839  326
1840  371
1841  502
1842  542
1843  621
1844  739
1845  888
1846  970
1847  1141
1848  1265
1849  1294
1850  1559
1851  1723
1852  1841
1853  1931
1854  2155
1855  2087
1856  2254
1857  2366
1858  2467
1859  2496
1860  2528
1861  2582
1862  2516
1863  2546
1864  2275
1865  2271
1866  2208
1867  2090
1868  1970
1869  1928
1870  1853
1871  1709
1872  1625
1873  1449
1874  1339
1875  1258
1876  1177
1877  1015
1878  962
1879  903
1880  871
1881  814
1882  743
1883  664
1884  587
1885  578
1886  523
1887  505
1888  447
1889  463
1890  386
1891  399
1892  322
1893  303
1894  331
1895  280
1896  277
1897  232
1898  220
1899  229
1900  211
1901  163
1902  153
1903  174
1904  153
1905  129
1906  128
1907  105
1908  112
1909  89
1910  87
1911  90
1912  69
1913  73
1914  59
1915  65
1916  43
1917  55
1918  42
1919  46
1920  33
1921  30
1922  24
1923  25
1924  27
1925  22
1926  26
1927  14
1928  16
1929  20
1930  16
1931  15
1932  11
1933  19
1934  18
1935  21
1936  11
1937  11
1938  13
1939  6
1940  20
1941  9
1942  12
1943  11
1944  9
1945  6
1946  11
1947  13
1948  6
1949  12
1950  8
1951  17
1952  12
1953  12
1954  11
1955  15
1956  9
1957  13
1958  19
1959  11
1960  9
1961  9
1962  14
1963  13
1964  14
1965  7
1966  15
1967  17
1968  17
1969  12
1970  11
1971  12
1972  8
1973  14
1974  19
1975  9
1976  10
1977  11
1978  10
1979  10
1980  14
1981  11
1982  8
1983  7
1984  11
1985  15
1986  9
1987  6
1988  10
1989  13
1990  5
1991  10
1992  15
1993  15
1994  15
1995  13
1996  10
1997  12
1998  16
1999  8
2000  12
2001  11
2002  16
2003  19
2004  11
2005  14
2006  10
2007  12
2008  12
2009  15
2010  14
2011  18
2012  13
2013  14
2014  16
2015  13
2016  12
2017  18
2018  14
2019  14
2020  14
2021  6
2022  10
2023  10
2024  16
2025  11
2026  17
2027  10
2028  13
2029  14
2030  18
2031  9
2032  16
2033  15
2034  10
2035  11
2036  11
2037  12
2038  18
2039  13
2040  8
2041  10
2042  11
2043  11
2044  8
2045  11
2046  15
2047  9
2048  16
2049  11
2050  12
2051  18
2052  8
2053  10
2054  11
2055  12
2056  16
2057  9
2058  15
2059  10
2060  14
2061  16
2062  14
2063  18
2064  9
2065  8
2066  9
2067  23
2068  16
2069  8
2070  15
2071  9
2072  8
2073  11
2074  11
2075  13
2076  15
2077  13
2078  15
2079  15
2080  12
2081  14
2082  14
2083  11
2084  8
2085  5
2086  13
2087  12
2088  6
2089  13
2090  20
2091  13
2092  12
2093  12
2094  17
2095  12
2096  8
2097  7
2098  18
2099  12
2100  15
2101  14
2102  11
2103  9
2104  11
2105  12
2106  9
2107  13
2108  14
2109  9
2110  9
2111  9
2112  19
2113  6
2114  9
2115  6
2116  17
2117  17
2118  7
2119  13
2120  10
2121  10
2122  8
2123  16
2124  9
2125  13
2126  15
2127  12
2128  16
2129  14
2130  17
2131  10
2132  11
2133  12
2134  8
2135  19
2136  18
2137  11
2138  11
2139  11
2140  16
2141  13
2142  13
2143  10
2144  15
2145  12
2146  19
2147  6
2148  12
2149  12
2150  12
2151  14
2152  14
2153  12
2154  12
2155  13
2156  7
2157  13
2158  10
2159  13
2160  9
2161  8
2162  19
2163  11
2164  7
2165  12
2166  17
2167  9
2168  9
2169  13
2170  11
2171  13
2172  8
2173  18
2174  12
2175  13
2176  7
2177  13
2178  11
2179  10
2180  22
2181  8
2182  14
2183  11
2184  11
2185  12
2186  12
2187  18
2188  15
2189  5
2190  10
2191  16
2192  15
2193  18
2194  11
2195  19
2196  12
2197  8
2198  8
2199  17
2200  10
2201  10
2202  12
2203  12
2204  17
2205  14
2206  6
2207  15
2208  12
2209  21
2210  9
2211  13
2212  15
2213  11
2214  14
2215  8
2216  13
2217  17
2218  18
2219  12
2220  21
2221  11
2222  10
2223  12
2224  17
2225  11
2226  9
2227  13
2228  10
2229  11
2230  16
2231  10
2232  12
2233  8
2234  14
2235  12
2236  16
2237  11
2238  15
2239  15
2240  12
2241  10
2242  14
2243  15
2244  15
2245  8
2246  17
2247  15
2248  13
2249  10
2250  16
2251  15
2252  8
2253  12
2254  11
2255  6
2256  9
2257  10
2258  14
2259  11
2260  13
2261  12
2262  9
2263  18
2264  13
2265  13
2266  17
2267  13
2268  12
2269  16
2270  13
2271  14
2272  11
2273  10
2274  20
2275  11
2276  13
2277  11
2278  14
2279  10
2280  10
2281  19
2282  7
2283  14
2284  13
2285  16
2286  16
2287  11
2288  18
2289  5
2290  14
2291  9
2292  10
2293  7
2294  12
2295  19
2296  11
2297  9
2298  19
2299  12
2300  9
2301  21
2302  18
2303  12
2304  12
2305  12
2306  7
2307  10
2308  7
2309  19
2310  10
2311  15
2312  14
2313  10
2314  10
2315  12
2316  13
2317  11
2318  13
2319  11
2320  12
2321  13
2322  13
2323  10
2324  11
2325  19
2326  11
2327  15
2328  12
2329  8
2330  17
2331  16
2332  10
2333  17
2334  9
2335  22
2336  14
2337  11
2338  15
2339  17
2340  15
2341  15
2342  17
2343  13
2344  9
2345  14
2346  14
2347  15
2348  12
2349  10
2350  17
2351  14
2352  12
2353  12
2354  10
2355  13
2356  12
2357  13
2358  7
2359  18
2360  13
2361  10
2362  17
2363  6
2364  13
2365  13
2366  10
2367  14
2368  10
2369  10
2370  8
2371  11
2372  9
2373  10
2374  12
2375  11
2376  13
2377  15
2378  13
2379  12
2380  10
2381  15
2382  8
2383  8
2384  18
2385  12
2386  8
2387  8
2388  13
2389  12
2390  17
2391  12
2392  9
2393  8
2394  12
2395  13
2396  18
2397  13
2398  11
2399  13
2400  14
2401  13
2402  13
2403  8
2404  12
2405  13
2406  12
2407  12
2408  15
2409  13
2410  14
2411  10
2412  12
2413  18
2414  10
2415  9
2416  13
2417  17
2418  12
2419  12
2420  8
2421  16
2422  16
2423  11
2424  11
2425  14
2426  17
2427  10
2428  15
2429  13
2430  21
2431  13
2432  13
2433  12
2434  16
2435  9
2436  14
2437  11
2438  13
2439  7
2440  19
2441  10
2442  19
2443  12
2444  10
2445  14
2446  18
2447  9
2448  13
2449  8
2450  11
2451  14
2452  10
2453  13
2454  7
2455  9
2456  11
2457  10
2458  17
2459  11
2460  8
2461  18
2462  13
2463  13
2464  6
2465  9
2466  9
2467  9
2468  12
2469  10
2470  12
2471  12
2472  8
2473  11
2474  12
2475  14
2476  12
2477  16
2478  16
2479  14
2480  10
2481  8
2482  8
2483  8
2484  18
2485  12
2486  11
2487  16
2488  11
2489  8
2490  4
2491  17
2492  10
2493  9
2494  14
2495  14
2496  14
2497  10
2498  14
2499  11
2500  19
2501  8
2502  9
2503  12
2504  12
2505  15
2506  10
2507  13
2508  11
2509  14
2510  14
2511  10
2512  14
2513  5
2514  21
2515  11
2516  14
2517  12
2518  13
2519  6
2520  12
2521  14
2522  11
2523  11
2524  12
2525  14
2526  12
2527  10
2528  9
2529  8
2530  15
2531  7
2532  16
2533  11
2534  9
2535  8
2536  7
2537  20
2538  18
2539  10
2540  8
2541  12
2542  7
2543  7
2544  7
2545  10
2546  9
2547  10
2548  12
2549  14
2550  8
2551  13
2552  16
2553  13
2554  8
2555  9
2556  14
2557  16
2558  10
2559  12
2560  12
2561  11
2562  14
2563  21
2564  15
2565  11
2566  7
2567  17
2568  17
2569  11
2570  13
2571  19
2572  17
2573  18
2574  6
2575  10
2576  13
2577  11
2578  8
2579  11
2580  4
2581  8
2582  10
2583  16
2584  11
2585  11
2586  12
2587  10
2588  15
2589  15
2590  11
2591  14
2592  13
2593  14
2594  13
2595  10
2596  11
2597  13
2598  15
2599  6
2600  15
2601  14
2602  10
2603  8
2604  17
2605  18
2606  14
2607  12
2608  9
2609  23
2610  20
2611  14
2612  13
2613  14
2614  14
2615  15
2616  10
2617  3
2618  12
2619  17
2620  6
2621  7
2622  16
2623  15
2624  10
2625  8
2626  7
2627  9
2628  10
2629  13
2630  25
2631  16
2632  12
2633  9
2634  22
2635  11
2636  9
2637  14
2638  15
2639  14
2640  19
2641  13
2642  12
2643  8
2644  8
2645  21
2646  12
2647  12
2648  14
2649  10
2650  10
2651  20
2652  8
2653  9
2654  22
2655  13
2656  19
2657  15
2658  15
2659  18
2660  10
2661  15
2662  12
2663  16
2664  19
2665  11
2666  13
2667  16
2668  14
2669  13
2670  11
2671  7
2672  16
2673  10
2674  8
2675  13
2676  11
2677  12
2678  13
2679  14
2680  4
2681  8
2682  10
2683  7
2684  14
2685  13
2686  12
2687  13
2688  13
2689  13
2690  23
2691  12
2692  11
2693  12
2694  20
2695  7
2696  13
2697  11
2698  12
2699  9
2700  14
2701  16
2702  8
2703  7
2704  14
2705  8
2706  18
2707  6
2708  16
2709  13
2710  9
2711  17
2712  16
2713  12
2714  15
2715  9
2716  10
2717  12
2718  8
2719  9
2720  19
2721  9
2722  13
2723  7
2724  8
2725  12
2726  14
2727  13
2728  8
2729  16
2730  8
2731  12
2732  13
2733  6
2734  13
2735  14
2736  16
2737  13
2738  18
2739  10
2740  8
2741  8
2742  8
2743  10
2744  15
2745  14
2746  12
2747  16
2748  9
2749  6
2750  8
2751  10
2752  9
2753  9
2754  9
2755  9
2756  19
2757  14
2758  8
2759  9
2760  10
2761  13
2762  15
2763  9
2764  8
2765  15
2766  9
2767  16
2768  10
2769  15
2770  12
2771  8
2772  12
2773  16
2774  17
2775  11
2776  10
2777  10
2778  9
2779  9
2780  15
2781  13
2782  18
2783  18
2784  12
2785  12
2786  14
2787  20
2788  11
2789  14
2790  9
2791  9
2792  15
2793  13
2794  17
2795  11
2796  11
2797  11
2798  14
2799  9
2800  11
2801  14
2802  8
2803  14
2804  13
2805  9
2806  7
2807  17
2808  13
2809  8
2810  16
2811  18
2812  22
2813  12
2814  17
2815  10
2816  12
2817  10
2818  15
2819  9
2820  15
2821  9
2822  13
2823  14
2824  18
2825  14
2826  11
2827  10
2828  11
2829  13
2830  13
2831  20
2832  11
2833  11
2834  14
2835  14
2836  11
2837  8
2838  12
2839  14
2840  7
2841  16
2842  5
2843  8
2844  9
2845  15
2846  12
2847  12
2848  14
2849  13
2850  12
2851  8
2852  12
2853  19
2854  9
2855  10
2856  14
2857  12
2858  11
2859  11
2860  6
2861  8
2862  17
2863  15
2864  14
2865  12
2866  13
2867  16
2868  13
2869  15
2870  10
2871  15
2872  10
2873  7
2874  18
2875  7
2876  4
2877  20
2878  10
2879  9
2880  8
2881  10
2882  11
2883  11
2884  9
2885  12
2886  10
2887  8
2888  9
2889  8
2890  14
2891  13
2892  6
2893  13
2894  12
2895  13
2896  11
2897  8
2898  12
2899  8
2900  15
2901  12
2902  16
2903  10
2904  11
2905  8
2906  17
2907  17
2908  10
2909  9
2910  20
2911  13
2912  17
2913  12
2914  13
2915  10
2916  12
2917  14
2918  12
2919  14
2920  11
2921  11
2922  14
2923  12
2924  11
2925  9
2926  19
2927  18
2928  10
2929  18
2930  10
2931  13
2932  20
2933  16
2934  6
2935  16
2936  13
2937  11
2938  9
2939  4
2940  10
2941  13
2942  9
2943  14
2944  16
2945  16
2946  14
2947  11
2948  8
2949  11
2950  8
2951  14
2952  10
2953  10
2954  5
2955  10
2956  13
2957  10
2958  14
2959  18
2960  10
2961  13
2962  7
2963  10
2964  11
2965  11
2966  16
2967  17
2968  10
2969  14
2970  9
2971  14
2972  8
2973  10
2974  17
2975  16
2976  10
2977  5
2978  16
2979  22
2980  10
2981  18
2982  9
2983  14
2984  14
2985  12
2986  9
2987  6
2988  9
2989  11
2990  17
2991  11
2992  19
2993  4
2994  17
2995  11
2996  12
2997  12
2998  15
2999  12
3000  12
3001  13
3002  19
3003  13
3004  11
3005  13
3006  15
3007  14
3008  13
3009  11
3010  17
3011  20
3012  22
3013  18
3014  12
3015  19
3016  9
3017  9
3018  15
3019  9
3020  15
3021  24
3022  10
3023  16
3024  15
3025  15
3026  12
3027  14
3028  13
3029  5
3030  16
3031  14
3032  12
3033  13
3034  13
3035  15
3036  16
3037  10
3038  13
3039  15
3040  9
3041  12
3042  11
3043  16
3044  11
3045  17
3046  10
3047  10
3048  17
3049  17
3050  9
3051  19
3052  13
3053  6
3054  18
3055  7
3056  14
3057  12
3058  12
3059  14
3060  12
3061  15
3062  14
3063  10
3064  19
3065  12
3066  13
3067  13
3068  8
3069  13
3070  14
3071  15
3072  8
3073  16
3074  18
3075  17
3076  16
3077  20
3078  5
3079  11
3080  12
3081  13
3082  20
3083  15
3084  16
3085  13
3086  16
3087  15
3088  11
3089  16
3090  18
3091  9
3092  8
3093  17
3094  10
3095  14
3096  15
3097  10
3098  11
3099  12
3100  8
3101  11
3102  12
3103  15
3104  8
3105  11
3106  16
3107  15
3108  7
3109  8
3110  13
3111  11
3112  8
3113  11
3114  15
3115  18
3116  22
3117  11
3118  20
3119  13
3120  16
3121  12
3122  11
3123  13
3124  10
3125  14
3126  9
3127  18
3128  10
3129  14
3130  10
3131  14
3132  5
3133  15
3134  18
3135  12
3136  9
3137  13
3138  10
3139  21
3140  13
3141  14
3142  14
3143  14
3144  18
3145  20
3146  18
3147  12
3148  13
3149  14
3150  13
3151  11
3152  13
3153  15
3154  13
3155  14
3156  15
3157  13
3158  12
3159  14
3160  13
3161  12
3162  16
3163  13
3164  13
3165  12
3166  3
3167  11
3168  11
3169  15
3170  14
3171  18
3172  14
3173  19
3174  17
3175  11
3176  16
3177  7
3178  16
3179  12
3180  6
3181  16
3182  14
3183  9
3184  9
3185  14
3186  15
3187  12
3188  19
3189  11
3190  12
3191  15
3192  10
3193  12
3194  17
3195  12
3196  13
3197  9
3198  18
3199  10
3200  12
3201  15
3202  14
3203  19
3204  13
3205  13
3206  15
3207  14
3208  19
3209  12
3210  13
3211  11
3212  8
3213  17
3214  17
3215  16
3216  12
3217  9
3218  16
3219  12
3220  17
3221  15
3222  18
3223  19
3224  11
3225  16
3226  17
3227  15
3228  16
3229  15
3230  13
3231  16
3232  19
3233  11
3234  16
3235  18
3236  16
3237  13
3238  18
3239  15
3240  19
3241  19
3242  14
3243  10
3244  9
3245  16
3246  18
3247  18
3248  17
3249  10
3250  13
3251  15
3252  12
3253  16
3254  17
3255  12
3256  14
3257  10
3258  14
3259  14
3260  11
3261  19
3262  13
3263  17
3264  19
3265  11
3266  10
3267  22
3268  9
3269  10
3270  12
3271  11
3272  17
3273  27
3274  16
3275  23
3276  23
3277  11
3278  14
3279  16
3280  16
3281  22
3282  18
3283  15
3284  18
3285  19
3286  18
3287  14
3288  24
3289  23
3290  12
3291  16
3292  21
3293  22
3294  23
3295  22
3296  21
3297  17
3298  7
3299  21
3300  14
3301  26
3302  10
3303  12
3304  20
3305  19
3306  21
3307  15
3308  18
3309  20
3310  13
3311  20
3312  19
3313  16
3314  17
3315  18
3316  16
3317  19
3318  14
3319  25
3320  15
3321  26
3322  15
3323  24
3324  12
3325  14
3326  15
3327  29
3328  20
3329  17
3330  17
3331  11
3332  19
3333  25
3334  19
3335  21
3336  19
3337  20
3338  25
3339  18
3340  17
3341  25
3342  17
3343  16
3344  30
3345  27
3346  21
3347  17
3348  29
3349  30
3350  17
3351  25
3352  24
3353  22
3354  17
3355  23
3356  18
3357  26
3358  20
3359  24
3360  24
3361  21
3362  22
3363  24
3364  21
3365  30
3366  27
3367  29
3368  21
3369  30
3370  32
3371  21
3372  20
3373  14
3374  23
3375  24
3376  26
3377  23
3378  14
3379  32
3380  24
3381  28
3382  23
3383  20
3384  25
3385  27
3386  27
3387  26
3388  21
3389  27
3390  23
3391  27
3392  33
3393  25
3394  26
3395  29
3396  34
3397  35
3398  27
3399  37
3400  22
3401  23
3402  32
3403  22
3404  18
3405  27
3406  24
3407  23
3408  40
3409  30
3410  33
3411  30
3412  32
3413  29
3414  27
3415  37
3416  23
3417  25
3418  24
3419  33
3420  37
3421  33
3422  30
3423  30
3424  36
3425  29
3426  40
3427  31
3428  26
3429  31
3430  29
3431  31
3432  35
3433  36
3434  25
3435  39
3436  27
3437  41
3438  33
3439  40
3440  36
3441  28
3442  37
3443  36
3444  28
3445  31
3446  37
3447  32
3448  33
3449  34
3450  34
3451  23
3452  31
3453  36
3454  20
3455  36
3456  26
3457  30
3458  30
3459  28
3460  21
3461  31
3462  33
3463  33
3464  30
3465  32
3466  22
3467  21
3468  33
3469  31
3470  41
3471  40
3472  25
3473  33
3474  23
3475  25
3476  32
3477  24
3478  30
3479  24
3480  30
3481  36
3482  33
3483  37
3484  35
3485  40
3486  27
3487  29
3488  33
3489  31
3490  27
3491  30
3492  28
3493  32
3494  25
3495  27
3496  28
3497  33
3498  37
3499  35
3500  24
3501  36
3502  19
3503  30
3504  24
3505  26
3506  15
3507  27
3508  30
3509  31
3510  33
3511  44
3512  31
3513  26
3514  34
3515  19
3516  24
3517  20
3518  20
3519  25
3520  36
3521  32
3522  37
3523  22
3524  28
3525  29
3526  20
3527  22
3528  23
3529  27
3530  20
3531  24
3532  32
3533  24
3534  31
3535  31
3536  24
3537  33
3538  31
3539  28
3540  24
3541  29
3542  26
3543  36
3544  28
3545  17
3546  32
3547  34
3548  24
3549  27
3550  31
3551  22
3552  37
3553  42
3554  31
3555  32
3556  40
3557  33
3558  39
3559  42
3560  36
3561  36
3562  39
3563  50
3564  38
3565  42
3566  34
3567  56
3568  55
3569  49
3570  60
3571  54
3572  60
3573  63
3574  61
3575  63
3576  59
3577  73
3578  68
3579  81
3580  99
3581  108
3582  91
3583  105
3584  107
3585  132
3586  136
3587  132
3588  155
3589  150
3590  179
3591  171
3592  177
3593  210
3594  217
3595  246
3596  216
3597  250
3598  243
3599  239
3600  283
3601  273
3602  303
3603  328
3604  299
3605  335
3606  353
3607  327
3608  354
3609  354
3610  380
3611  356
3612  392
3613  445
3614  411
3615  426
3616  502
3617  461
3618  466
3619  482
3620  463
3621  474
3622  455
3623  505
3624  497
3625  455
3626  481
3627  510
3628  562
3629  552
3630  566
3631  524
3632  520
3633  582
3634  592
3635  545
3636  533
3637  531
3638  532
3639  499
3640  586
3641  565
3642  569
3643  538
3644  531
3645  518
3646  516
3647  530
3648  475
3649  516
3650  457
3651  448
3652  436
3653  408
3654  409
3655  388
3656  373
3657  378
3658  384
3659  358
3660  354
3661  326
3662  323
3663  299
3664  273
3665  286
3666  298
3667  276
3668  280
3669  233
3670  235
3671  195
3672  230
3673  210
3674  206
3675  184
3676  182
3677  188
3678  175
3679  155
3680  152
3681  152
3682  131
3683  137
3684  121
3685  112
3686  96
3687  103
3688  103
3689  106
3690  101
3691  99
3692  80
3693  89
3694  79
3695  67
3696  70
3697  59
3698  51
3699  46
3700  56
3701  43
3702  47
3703  58
3704  61
3705  54
3706  68
3707  44
3708  60
3709  70
3710  68
3711  68
3712  93
3713  83
3714  111
3715  129
3716  143
3717  166
3718  198
3719  268
3720  296
3721  327
3722  412
3723  489
3724  541
3725  683
3726  758
3727  904
3728  1037
3729  1161
3730  1317
3731  1419
3732  1592
3733  1785
3734  1855
3735  1971
3736  2160
3737  2212
3738  2333
3739  2401
3740  2457
3741  2540
3742  2505
3743  2456
3744  2502
3745  2394
3746  2494
3747  2305
3748  2241
3749  2060
3750  2097
3751  1926
3752  1772
3753  1637
3754  1532
3755  1520
3756  1357
3757  1247
3758  1168
3759  1072
3760  1002
3761  909
3762  788
3763  784
3764  712
3765  633
3766  610
3767  551
3768  508
3769  486
3770  459
3771  407
3772  408
3773  358
3774  361
3775  324
3776  337
3777  313
3778  262
3779  242
3780  246
3781  206
3782  182
3783  164
3784  168
3785  148
3786  121
3787  130
3788  112
3789  104
3790  100
3791  92
3792  94
3793  87
3794  50
3795  63
3796  64
3797  61
3798  36
3799  52
3800  36
3801  49
3802  34
3803  29
3804  32
3805  29
3806  31
3807  24
3808  23
3809  23
3810  21
3811  19
3812  20
3813  14
3814  14
3815  14
3816  16
3817  16
3818  13
3819  11
3820  13
3821  7
3822  17
3823  10
3824  9
3825  23
3826  13
3827  20
3828  16
3829  13
3830  14
3831  9
3832  17
3833  15
3834  12
3835  12
3836  11
3837  13
3838  10
3839  23
3840  0
3841  0
3842  0
3843  0
3844  0
3845  0
3846  0
3847  0
3848  0
3849  0
3850  0
3851  0
3852  0
3853  0
3854  0
3855  0
3856  0
3857  0
3858  0
3859  0
3860  0
3861  0
3862  0
3863  0
3864  0
3865  0
3866  0
3867  0
3868  0
3869  0
3870  0
3871  0
3872  0
3873  0
3874  0
3875  0
3876  0
3877  0
3878  0
3879  0
3880  0
3881  0
3882  0
3883  0
3884  0
3885  0
3886  0
3887  0
3888  0
3889  0
3890  0
3891  0
3892  0
3893  0
3894  0
3895  0
3896  0
3897  0
3898  0
3899  0
3900  0
3901  0
3902  0
3903  0
3904  0
3905  0
3906  0
3907  0
3908  0
3909  0
3910  0
3911  0
3912  0
3913  0
3914  0
3915  0
3916  0
3917  0
3918  0
3919  0
3920  0
3921  0
3922  0
3923  0
3924  0
3925  0
3926  0
3927  0
3928  0
3929  0
3930  0
3931  0
3932  0
3933  0
3934  0
3935  0
3936  0
3937  0
3938  0
3939  0
3940  0
3941  0
3942  0
3943  0
3944  0
3945  0
3946  0
3947  0
3948  0
3949  0
3950  0
3951  0
3952  0
3953  0
3954  0
3955  0
3956  0
3957  0
3958  0
3959  0
3960  0
3961  0
3962  0
3963  0
3964  0
3965  0
3966  0
3967  0
3968  0
3969  0
3970  0
3971  0
3972  0
3973  0
3974  0
3975  0
3976  0
3977  0
3978  0
3979  0
3980  0
3981  0
3982  0
3983  0
3984  0
3985  0
3986  0
3987  0
3988  0
3989  0
3990  0
3991  0
3992  0
3993  0
3994  0
3995  0
3996  0
3997  0
3998  0
3999  0
4000  0
4001  0
4002  0
4003  0
4004  0
4005  0
4006  0
4007  0
4008  0
4009  0
4010  0
4011  0
4012  0
4013  0
4014  0
4015  0
4016  0
4017  0
4018  0
4019  0
4020  0
4021  0
4022  0
4023  0
4024  0
4025  0
4026  0
4027  0
4028  0
4029  0
4030  0
4031  0
4032  0
4033  0
4034  0
4035  0
4036  0
4037  0
4038  0
4039  0
4040  0
4041  0
4042  0
4043  0
4044  0
4045  0
4046  0
4047  0
4048  0
4049  0
4050  0
4051  0
4052  0
4053  0
4054  0
4055  0
4056  0
4057  0
4058  0
4059  0
4060  0
4061  0
4062  0
4063  0
4064  0
4065  0
4066  0
4067  0
4068  0
4069  0
4070  0
4071  0
4072  0
4073  0
4074  0
4075  0
4076  0
4077  0
4078  0
4079  0
4080  0
4081  0
4082  0
4083  0
4084  0
4085  0
4086  0
4087  0
4088  0
4089  0
4090  0
4091  0
4092  0
4093  0
4094  0
4095  0
