0  2941
1  3310
2  3817
3  4624
4  5354
5  6248
6  7022
7  7698
8  8555
9  9213
10  9796
11  10186
12  10836
13  11330
14  11465
15  11385
16  11489
17  11339
18  10910
19  10456
20  9910
21  9234
22  8631
23  7770
24  7001
25  6116
26  5383
27  4630
28  4019
29  3416
30  2760
31  2348
32  1915
33  1527
34  1318
35  1019
36  774
37  642
38  477
39  353
40  286
41  231
42  159
43  94
44  111
45  76
46  49
47  42
48  33
49  19
50  13
51  12
52  7
53  6
54  4
55  8
56  1
57  1
58  0
59  1
60  0
61  1
62  0
63  3
64  1
65  1
66  1
67  1
68  1
69  0
70  0
71  1
72  1
73  0
74  1
75  1
76  1
77  0
78  0
79  2
80  1
81  2
82  1
83  1
84  0
85  0
86  1
87  3
88  0
89  3
90  0
91  2
92  1
93  1
94  0
95  1
96  0
97  0
98  2
99  1
100  0
101  2
102  0
103  1
104  1
105  0
106  0
107  0
108  0
109  0
110  3
111  0
112  0
113  0
114  0
115  0
116  1
117  0
118  1
119  1
120  0
121  2
122  0
123  2
124  1
125  3
126  0
127  1
128  0
129  2
130  2
131  2
132  0
133  0
134  0
135  1
136  0
137  2
138  0
139  0
140  0
141  1
142  1
143  2
144  1
145  0
146  0
147  1
148  0
149  0
150  0
151  1
152  0
153  0
154  1
155  0
156  0
157  1
158  0
159  1
160  0
161  0
162  0
163  0
164  1
165  1
166  1
167  0
168  2
169  0
170  1
171  1
172  0
173  0
174  2
175  0
176  0
177  0
178  1
179  1
180  1
181  1
182  0
183  1
184  2
185  7
186  6
187  4
188  8
189  14
190  14
191  26
192  26
193  25
194  41
195  70
196  62
197  104
198  117
199  177
200  170
201  247
202  270
203  342
204  413
205  500
206  580
207  663
208  746
209  797
210  969
211  1023
212  1167
213  1225
214  1334
215  1284
216  1411
217  1502
218  1555
219  1437
220  1526
221  1499
222  1481
223  1518
224  1465
225  1426
226  1297
227  1327
228  1203
229  1160
230  1036
231  949
232  835
233  839
234  680
235  691
236  660
237  577
238  544
239  490
240  466
241  451
242  412
243  386
244  383
245  369
246  364
247  349
248  353
249  357
250  350
251  340
252  339
253  364
254  329
255  329
256  331
257  341
258  311
259  316
260  316
261  297
262  311
263  341
264  343
265  311
266  341
267  335
268  323
269  305
270  315
271  303
272  340
273  340
274  334
275  325
276  345
277  375
278  345
279  325
280  336
281  344
282  329
283  328
284  332
285  316
286  326
287  349
288  337
289  328
290  361
291  346
292  343
293  309
294  331
295  321
296  305
297  338
298  360
299  345
300  324
301  365
302  301
303  324
304  347
305  338
306  337
307  344
308  347
309  333
310  345
311  333
312  351
313  341
314  354
315  347
316  331
317  351
318  330
319  342
320  352
321  310
322  355
323  313
324  366
325  316
326  308
327  354
328  343
329  338
330  299
331  353
332  334
333  347
334  323
335  318
336  309
337  344
338  350
339  343
340  361
341  344
342  348
343  317
344  341
345  293
346  336
347  322
348  354
349  350
350  332
351  367
352  353
353  376
354  352
355  367
356  322
357  313
358  357
359  369
360  377
361  347
362  354
363  352
364  332
365  348
366  345
367  340
368  318
369  364
370  365
371  384
372  366
373  338
374  322
375  351
376  332
377  358
378  329
379  353
380  354
381  339
382  364
383  328
384  342
385  358
386  334
387  334
388  340
389  323
390  336
391  358
392  345
393  348
394  317
395  376
396  348
397  329
398  367
399  325
400  344
401  342
402  357
403  350
404  344
405  341
406  357
407  358
408  345
409  348
410  390
411  350
412  344
413  363
414  353
415  337
416  333
417  362
418  370
419  352
420  389
421  356
422  335
423  378
424  314
425  346
426  338
427  330
428  351
429  331
430  347
431  340
432  381
433  374
434  350
435  345
436  337
437  365
438  336
439  341
440  333
441  326
442  361
443  362
444  338
445  345
446  336
447  364
448  333
449  349
450  345
451  365
452  333
453  305
454  332
455  327
456  344
457  306
458  336
459  344
460  345
461  343
462  346
463  361
464  350
465  382
466  407
467  347
468  372
469  344
470  366
471  321
472  339
473  333
474  340
475  344
476  371
477  358
478  350
479  369
480  336
481  375
482  354
483  347
484  360
485  345
486  351
487  329
488  356
489  356
490  335
491  369
492  347
493  343
494  347
495  349
496  390
497  336
498  341
499  329
500  336
501  371
502  368
503  375
504  316
505  368
506  325
507  352
508  331
509  328
510  355
511  354
512  341
513  372
514  367
515  370
516  353
517  315
518  363
519  333
520  375
521  366
522  353
523  360
524  364
525  380
526  355
527  338
528  336
529  329
530  355
531  320
532  356
533  352
534  359
535  322
536  365
537  371
538  323
539  337
540  336
541  313
542  344
543  345
544  349
545  358
546  355
547  327
548  338
549  321
550  348
551  380
552  328
553  355
554  351
555  368
556  338
557  338
558  353
559  354
560  324
561  345
562  354
563  338
564  342
565  354
566  369
567  341
568  379
569  321
570  354
571  366
572  318
573  334
574  341
575  342
576  393
577  374
578  352
579  342
580  339
581  368
582  331
583  353
584  300
585  335
586  373
587  339
588  313
589  326
590  329
591  297
592  330
593  347
594  405
595  384
596  335
597  318
598  312
599  348
600  315
601  357
602  330
603  343
604  334
605  345
606  357
607  365
608  364
609  327
610  368
611  347
612  313
613  356
614  327
615  316
616  356
617  362
618  339
619  337
620  339
621  324
622  330
623  299
624  325
625  324
626  329
627  330
628  321
629  346
630  345
631  335
632  342
633  330
634  351
635  347
636  350
637  313
638  362
639  338
640  349
641  329
642  340
643  335
644  298
645  319
646  326
647  351
648  315
649  321
650  309
651  342
652  324
653  296
654  317
655  318
656  329
657  305
658  303
659  325
660  308
661  325
662  314
663  325
664  346
665  305
666  386
667  293
668  347
669  303
670  353
671  307
672  308
673  308
674  322
675  312
676  322
677  316
678  285
679  342
680  310
681  304
682  317
683  340
684  333
685  318
686  335
687  280
688  328
689  306
690  285
691  322
692  274
693  361
694  318
695  297
696  296
697  362
698  313
699  328
700  335
701  328
702  333
703  320
704  306
705  304
706  272
707  297
708  302
709  289
710  254
711  328
712  296
713  320
714  310
715  276
716  299
717  283
718  297
719  313
720  294
721  317
722  292
723  304
724  315
725  279
726  330
727  333
728  298
729  279
730  308
731  283
732  284
733  300
734  289
735  304
736  282
737  292
738  295
739  298
740  317
741  279
742  287
743  278
744  289
745  264
746  308
747  262
748  300
749  294
750  280
751  260
752  309
753  294
754  281
755  285
756  262
757  288
758  264
759  261
760  265
761  262
762  286
763  297
764  286
765  278
766  267
767  261
768  273
769  291
770  310
771  263
772  273
773  245
774  266
775  297
776  257
777  259
778  284
779  265
780  306
781  274
782  263
783  278
784  270
785  264
786  272
787  262
788  258
789  258
790  266
791  278
792  276
793  253
794  267
795  264
796  264
797  260
798  266
799  270
800  247
801  286
802  244
803  272
804  308
805  267
806  258
807  247
808  271
809  225
810  278
811  256
812  229
813  239
814  244
815  220
816  255
817  254
818  273
819  250
820  231
821  248
822  236
823  246
824  230
825  263
826  261
827  260
828  250
829  250
830  241
831  247
832  257
833  233
834  270
835  247
836  255
837  228
838  224
839  230
840  259
841  256
842  231
843  225
844  221
845  221
846  242
847  250
848  214
849  207
850  259
851  198
852  247
853  241
854  238
855  205
856  193
857  237
858  219
859  229
860  215
861  230
862  230
863  210
864  222
865  212
866  184
867  210
868  211
869  211
870  219
871  253
872  206
873  227
874  225
875  212
876  202
877  228
878  204
879  220
880  210
881  231
882  194
883  210
884  211
885  204
886  176
887  202
888  178
889  200
890  216
891  191
892  206
893  218
894  181
895  207
896  174
897  190
898  214
899  195
900  219
901  190
902  163
903  198
904  180
905  179
906  201
907  168
908  206
909  179
910  214
911  187
912  205
913  212
914  185
915  174
916  185
917  189
918  172
919  176
920  170
921  174
922  184
923  170
924  179
925  198
926  181
927  169
928  155
929  160
930  189
931  174
932  168
933  181
934  154
935  169
936  175
937  148
938  149
939  160
940  183
941  151
942  158
943  170
944  138
945  154
946  147
947  165
948  152
949  164
950  161
951  133
952  148
953  155
954  167
955  160
956  161
957  159
958  148
959  151
960  151
961  149
962  152
963  153
964  156
965  133
966  149
967  143
968  163
969  149
970  151
971  132
972  155
973  163
974  159
975  164
976  144
977  161
978  156
979  132
980  146
981  150
982  155
983  144
984  146
985  132
986  160
987  123
988  145
989  134
990  140
991  130
992  146
993  118
994  133
995  171
996  147
997  133
998  142
999  135
1000  151
1001  141
1002  139
1003  152
1004  122
1005  164
1006  119
1007  152
1008  140
1009  146
1010  156
1011  119
1012  122
1013  128
1014  141
1015  145
1016  130
1017  150
1018  125
1019  128
1020  120
1021  159
1022  122
1023  133
1024  124
1025  116
1026  128
1027  126
1028  128
1029  140
1030  148
1031  120
1032  125
1033  132
1034  132
1035  129
1036  120
1037  135
1038  139
1039  135
1040  131
1041  125
1042  134
1043  124
1044  132
1045  124
1046  119
1047  121
1048  140
1049  136
1050  118
1051  122
1052  129
1053  140
1054  138
1055  99
1056  139
1057  123
1058  130
1059  132
1060  139
1061  125
1062  123
1063  127
1064  132
1065  156
1066  142
1067  134
1068  131
1069  133
1070  122
1071  125
1072  133
1073  131
1074  128
1075  120
1076  127
1077  124
1078  138
1079  124
1080  123
1081  132
1082  139
1083  112
1084  148
1085  127
1086  138
1087  121
1088  105
1089  134
1090  126
1091  108
1092  119
1093  120
1094  123
1095  132
1096  118
1097  123
1098  116
1099  126
1100  127
1101  111
1102  132
1103  98
1104  115
1105  138
1106  133
1107  132
1108  107
1109  109
1110  115
1111  139
1112  121
1113  127
1114  129
1115  123
1116  138
1117  122
1118  132
1119  106
1120  119
1121  136
1122  122
1123  127
1124  101
1125  114
1126  119
1127  120
1128  143
1129  120
1130  136
1131  144
1132  114
1133  110
1134  121
1135  130
1136  133
1137  124
1138  120
1139  109
1140  125
1141  133
1142  132
1143  120
1144  127
1145  111
1146  142
1147  128
1148  113
1149  126
1150  113
1151  111
1152  108
1153  112
1154  99
1155  141
1156  117
1157  105
1158  120
1159  130
1160  116
1161  98
1162  116
1163  116
1164  110
1165  114
1166  111
1167  113
1168  121
1169  106
1170  100
1171  112
1172  125
1173  105
1174  100
1175  105
1176  115
1177  119
1178  112
1179  108
1180  106
1181  115
1182  113
1183  104
1184  102
1185  110
1186  118
1187  101
1188  111
1189  113
1190  123
1191  119
1192  108
1193  111
1194  107
1195  108
1196  101
1197  112
1198  112
1199  104
1200  114
1201  102
1202  108
1203  107
1204  119
1205  114
1206  113
1207  107
1208  120
1209  102
1210  125
1211  114
1212  116
1213  110
1214  100
1215  121
1216  124
1217  121
1218  99
1219  123
1220  117
1221  111
1222  113
1223  131
1224  124
1225  97
1226  108
1227  107
1228  127
1229  98
1230  119
1231  139
1232  110
1233  112
1234  110
1235  98
1236  115
1237  100
1238  107
1239  103
1240  106
1241  114
1242  125
1243  119
1244  114
1245  120
1246  129
1247  102
1248  114
1249  123
1250  126
1251  113
1252  118
1253  115
1254  103
1255  121
1256  110
1257  128
1258  113
1259  103
1260  105
1261  118
1262  105
1263  115
1264  100
1265  114
1266  137
1267  114
1268  114
1269  113
1270  107
1271  113
1272  120
1273  119
1274  129
1275  122
1276  108
1277  120
1278  110
1279  127
1280  120
1281  117
1282  141
1283  125
1284  132
1285  126
1286  129
1287  130
1288  125
1289  109
1290  119
1291  120
1292  119
1293  115
1294  128
1295  129
1296  125
1297  125
1298  115
1299  127
1300  116
1301  116
1302  119
1303  118
1304  135
1305  133
1306  131
1307  136
1308  110
1309  127
1310  139
1311  108
1312  122
1313  115
1314  135
1315  117
1316  135
1317  115
1318  124
1319  119
1320  141
1321  123
1322  128
1323  133
1324  102
1325  129
1326  125
1327  125
1328  141
1329  144
1330  144
1331  142
1332  120
1333  140
1334  128
1335  107
1336  130
1337  131
1338  136
1339  131
1340  132
1341  131
1342  133
1343  124
1344  147
1345  131
1346  158
1347  115
1348  119
1349  132
1350  137
1351  122
1352  108
1353  116
1354  131
1355  129
1356  155
1357  128
1358  140
1359  134
1360  136
1361  137
1362  133
1363  132
1364  144
1365  123
1366  139
1367  166
1368  154
1369  155
1370  145
1371  131
1372  135
1373  145
1374  142
1375  158
1376  147
1377  121
1378  140
1379  134
1380  152
1381  137
1382  130
1383  136
1384  125
1385  133
1386  143
1387  147
1388  142
1389  153
1390  173
1391  125
1392  144
1393  156
1394  159
1395  149
1396  131
1397  146
1398  146
1399  165
1400  140
1401  139
1402  157
1403  145
1404  146
1405  144
1406  136
1407  159
1408  135
1409  154
1410  151
1411  154
1412  142
1413  154
1414  119
1415  144
1416  166
1417  168
1418  149
1419  140
1420  128
1421  139
1422  152
1423  146
1424  152
1425  145
1426  133
1427  173
1428  158
1429  149
1430  151
1431  148
1432  182
1433  136
1434  147
1435  151
1436  129
1437  143
1438  159
1439  136
1440  164
1441  154
1442  181
1443  167
1444  152
1445  138
1446  148
1447  163
1448  169
1449  164
1450  177
1451  155
1452  139
1453  163
1454  165
1455  175
1456  160
1457  145
1458  167
1459  146
1460  156
1461  185
1462  150
1463  171
1464  156
1465  178
1466  186
1467  182
1468  179
1469  190
1470  176
1471  169
1472  163
1473  176
1474  161
1475  176
1476  169
1477  160
1478  178
1479  166
1480  156
1481  193
1482  169
1483  163
1484  162
1485  175
1486  157
1487  186
1488  218
1489  168
1490  196
1491  163
1492  166
1493  186
1494  168
1495  174
1496  179
1497  177
1498  170
1499  201
1500  181
1501  180
1502  185
1503  148
1504  176
1505  186
1506  191
1507  170
1508  174
1509  185
1510  173
1511  173
1512  207
1513  179
1514  189
1515  226
1516  188
1517  194
1518  196
1519  188
1520  204
1521  187
1522  214
1523  195
1524  208
1525  186
1526  205
1527  196
1528  197
1529  208
1530  193
1531  205
1532  177
1533  191
1534  201
1535  225
1536  219
1537  216
1538  208
1539  188
1540  207
1541  215
1542  222
1543  218
1544  205
1545  227
1546  216
1547  204
1548  223
1549  237
1550  225
1551  215
1552  213
1553  228
1554  229
1555  232
1556  266
1557  258
1558  257
1559  272
1560  266
1561  294
1562  269
1563  305
1564  323
1565  357
1566  360
1567  401
1568  512
1569  486
1570  590
1571  748
1572  843
1573  930
1574  1100
1575  1207
1576  1424
1577  1613
1578  1803
1579  2053
1580  2408
1581  2650
1582  2944
1583  3148
1584  3437
1585  3800
1586  4020
1587  4329
1588  4649
1589  4607
1590  4864
1591  5174
1592  5280
1593  5301
1594  5013
1595  5183
1596  5168
1597  5105
1598  4931
1599  4715
1600  4558
1601  4485
1602  4142
1603  3893
1604  3716
1605  3409
1606  3269
1607  2908
1608  2659
1609  2515
1610  2334
1611  2113
1612  2028
1613  1908
1614  1749
1615  1613
1616  1448
1617  1394
1618  1351
1619  1320
1620  1153
1621  1096
1622  1020
1623  910
1624  901
1625  904
1626  825
1627  771
1628  744
1629  683
1630  611
1631  618
1632  641
1633  594
1634  533
1635  530
1636  475
1637  523
1638  491
1639  448
1640  426
1641  395
1642  385
1643  435
1644  380
1645  393
1646  407
1647  413
1648  466
1649  434
1650  486
1651  541
1652  578
1653  620
1654  714
1655  852
1656  1003
1657  1076
1658  1228
1659  1450
1660  1685
1661  1889
1662  2183
1663  2400
1664  2742
1665  2991
1666  3333
1667  3684
1668  3965
1669  4411
1670  4799
1671  5002
1672  5492
1673  5628
1674  5800
1675  6213
1676  6349
1677  6291
1678  6458
1679  6261
1680  6576
1681  6516
1682  6365
1683  6252
1684  6171
1685  5947
1686  5813
1687  5468
1688  5361
1689  5100
1690  4879
1691  4670
1692  4360
1693  4217
1694  3978
1695  3735
1696  3562
1697  3357
1698  3065
1699  2964
1700  2779
1701  2563
1702  2407
1703  2320
1704  2209
1705  2071
1706  1990
1707  1793
1708  1748
1709  1611
1710  1520
1711  1495
1712  1381
1713  1344
1714  1253
1715  1263
1716  1191
1717  1169
1718  1166
1719  1123
1720  1113
1721  1027
1722  1018
1723  1019
1724  941
1725  951
1726  973
1727  926
1728  917
1729  884
1730  929
1731  925
1732  900
1733  898
1734  910
1735  865
1736  904
1737  886
1738  928
1739  890
1740  908
1741  847
1742  919
1743  931
1744  936
1745  938
1746  873
1747  950
1748  926
1749  888
1750  968
1751  933
1752  941
1753  880
1754  926
1755  887
1756  944
1757  924
1758  923
1759  934
1760  925
1761  902
1762  865
1763  844
1764  865
1765  828
1766  821
1767  844
1768  809
1769  784
1770  806
1771  783
1772  763
1773  765
1774  715
1775  690
1776  696
1777  683
1778  655
1779  661
1780  641
1781  585
1782  630
1783  608
1784  574
1785  567
1786  547
1787  519
1788  504
1789  519
1790  469
1791  486
1792  479
1793  430
1794  423
1795  426
1796  423
1797  478
1798  385
1799  410
1800  402
1801  423
1802  398
1803  347
1804  347
1805  341
1806  314
1807  328
1808  337
1809  309
1810  324
1811  332
1812  311
1813  289
1814  310
1815  329
1816  306
1817  277
1818  279
1819  301
1820  298
1821  306
1822  290
1823  275
1824  298
1825  304
1826  329
1827  299
1828  323
1829  305
1830  327
1831  352
1832  409
1833  372
1834  396
1835  450
1836  475
1837  549
1838  603
1839  676
1840  741
1841  865
1842  934
1843  976
1844  1212
1845  1366
1846  1464
1847  1688
1848  1824
1849  1907
1850  2142
1851  2405
1852  2586
1853  2663
1854  2935
1855  2901
1856  3022
1857  3219
1858  3338
1859  3330
1860  3399
1861  3467
1862  3338
1863  3360
1864  3104
1865  3128
1866  3036
1867  2863
1868  2728
1869  2633
1870  2547
1871  2299
1872  2281
1873  2064
1874  1926
1875  1853
1876  1788
1877  1515
1878  1445
1879  1360
1880  1312
1881  1280
1882  1166
1883  1091
1884  962
1885  964
1886  915
1887  869
1888  815
1889  813
1890  739
1891  752
1892  681
1893  663
1894  670
1895  595
1896  592
1897  522
1898  545
1899  498
1900  502
1901  485
1902  458
1903  474
1904  452
1905  434
1906  420
1907  385
1908  404
1909  365
1910  390
1911  381
1912  329
1913  331
1914  302
1915  346
1916  283
1917  331
1918  323
1919  322
1920  295
1921  295
1922  311
1923  315
1924  309
1925  295
1926  300
1927  299
1928  334
1929  295
1930  290
1931  283
1932  272
1933  288
1934  272
1935  332
1936  304
1937  295
1938  267
1939  288
1940  295
1941  282
1942  293
1943  281
1944  272
1945  291
1946  272
1947  277
1948  281
1949  327
1950  307
1951  290
1952  278
1953  291
1954  282
1955  302
1956  302
1957  273
1958  277
1959  279
1960  277
1961  320
1962  291
1963  286
1964  294
1965  287
1966  318
1967  301
1968  339
1969  307
1970  303
1971  290
1972  327
1973  278
1974  306
1975  293
1976  261
1977  293
1978  284
1979  275
1980  284
1981  282
1982  282
1983  267
1984  333
1985  270
1986  277
1987  296
1988  291
1989  305
1990  277
1991  308
1992  316
1993  291
1994  313
1995  309
1996  309
1997  310
1998  279
1999  293
2000  285
2001  286
2002  293
2003  330
2004  310
2005  303
2006  280
2007  268
2008  301
2009  317
2010  308
2011  327
2012  290
2013  276
2014  291
2015  298
2016  340
2017  300
2018  312
2019  324
2020  293
2021  285
2022  298
2023  304
2024  318
2025  313
2026  279
2027  309
2028  306
2029  301
2030  316
2031  282
2032  300
2033  321
2034  283
2035  294
2036  315
2037  322
2038  341
2039  310
2040  303
2041  260
2042  313
2043  319
2044  313
2045  311
2046  327
2047  294
2048  316
2049  300
2050  279
2051  324
2052  325
2053  292
2054  338
2055  299
2056  295
2057  339
2058  323
2059  307
2060  327
2061  325
2062  341
2063  314
2064  342
2065  335
2066  292
2067  341
2068  293
2069  271
2070  325
2071  300
2072  320
2073  304
2074  359
2075  326
2076  301
2077  319
2078  325
2079  303
2080  333
2081  342
2082  291
2083  267
2084  325
2085  291
2086  284
2087  277
2088  300
2089  321
2090  347
2091  308
2092  311
2093  295
2094  315
2095  320
2096  285
2097  290
2098  282
2099  278
2100  322
2101  318
2102  307
2103  316
2104  321
2105  339
2106  291
2107  330
2108  313
2109  316
2110  295
2111  335
2112  301
2113  315
2114  290
2115  328
2116  324
2117  337
2118  265
2119  309
2120  317
2121  315
2122  327
2123  331
2124  294
2125  344
2126  317
2127  316
2128  305
2129  327
2130  289
2131  335
2132  279
2133  307
2134  313
2135  300
2136  349
2137  316
2138  299
2139  313
2140  283
2141  314
2142  311
2143  338
2144  336
2145  292
2146  317
2147  353
2148  314
2149  303
2150  350
2151  328
2152  309
2153  360
2154  335
2155  369
2156  309
2157  313
2158  332
2159  330
2160  306
2161  333
2162  303
2163  330
2164  291
2165  323
2166  333
2167  338
2168  333
2169  345
2170  321
2171  349
2172  305
2173  326
2174  330
2175  329
2176  349
2177  352
2178  331
2179  329
2180  335
2181  350
2182  331
2183  342
2184  340
2185  297
2186  337
2187  338
2188  309
2189  299
2190  344
2191  324
2192  333
2193  312
2194  311
2195  330
2196  322
2197  316
2198  345
2199  373
2200  299
2201  319
2202  356
2203  304
2204  339
2205  361
2206  323
2207  318
2208  355
2209  346
2210  294
2211  362
2212  344
2213  327
2214  311
2215  333
2216  373
2217  338
2218  355
2219  333
2220  349
2221  336
2222  307
2223  349
2224  351
2225  309
2226  334
2227  323
2228  362
2229  309
2230  395
2231  336
2232  314
2233  341
2234  346
2235  339
2236  330
2237  359
2238  342
2239  353
2240  309
2241  364
2242  333
2243  362
2244  330
2245  299
2246  365
2247  353
2248  319
2249  330
2250  358
2251  351
2252  321
2253  309
2254  337
2255  349
2256  343
2257  347
2258  328
2259  357
2260  361
2261  327
2262  341
2263  335
2264  360
2265  346
2266  388
2267  371
2268  373
2269  367
2270  341
2271  334
2272  340
2273  342
2274  364
2275  324
2276  348
2277  330
2278  343
2279  357
2280  343
2281  349
2282  337
2283  349
2284  375
2285  343
2286  342
2287  360
2288  341
2289  333
2290  372
2291  371
2292  345
2293  342
2294  352
2295  325
2296  325
2297  364
2298  301
2299  342
2300  353
2301  357
2302  373
2303  358
2304  346
2305  355
2306  341
2307  330
2308  354
2309  357
2310  331
2311  334
2312  338
2313  379
2314  315
2315  351
2316  356
2317  342
2318  312
2319  332
2320  362
2321  319
2322  330
2323  368
2324  361
2325  368
2326  348
2327  342
2328  360
2329  375
2330  390
2331  304
2332  344
2333  339
2334  324
2335  320
2336  382
2337  330
2338  323
2339  362
2340  310
2341  364
2342  331
2343  357
2344  319
2345  367
2346  363
2347  351
2348  357
2349  335
2350  343
2351  326
2352  333
2353  363
2354  357
2355  338
2356  337
2357  371
2358  330
2359  363
2360  322
2361  369
2362  371
2363  345
2364  333
2365  328
2366  349
2367  367
2368  306
2369  329
2370  352
2371  394
2372  328
2373  382
2374  340
2375  339
2376  336
2377  361
2378  363
2379  315
2380  377
2381  373
2382  363
2383  313
2384  366
2385  368
2386  356
2387  296
2388  348
2389  393
2390  351
2391  341
2392  323
2393  329
2394  325
2395  381
2396  356
2397  359
2398  334
2399  338
2400  374
2401  349
2402  359
2403  341
2404  358
2405  361
2406  337
2407  369
2408  348
2409  340
2410  383
2411  345
2412  356
2413  345
2414  341
2415  350
2416  335
2417  376
2418  362
2419  371
2420  355
2421  363
2422  363
2423  365
2424  325
2425  355
2426  341
2427  342
2428  345
2429  364
2430  382
2431  358
2432  355
2433  357
2434  366
2435  333
2436  364
2437  366
2438  340
2439  354
2440  319
2441  374
2442  365
2443  317
2444  397
2445  371
2446  338
2447  321
2448  350
2449  335
2450  324
2451  369
2452  349
2453  344
2454  367
2455  341
2456  359
2457  346
2458  323
2459  326
2460  331
2461  360
2462  387
2463  349
2464  341
2465  361
2466  337
2467  325
2468  322
2469  338
2470  343
2471  353
2472  325
2473  328
2474  317
2475  321
2476  357
2477  362
2478  354
2479  333
2480  349
2481  383
2482  338
2483  334
2484  374
2485  329
2486  306
2487  319
2488  338
2489  331
2490  327
2491  354
2492  327
2493  361
2494  341
2495  355
2496  332
2497  307
2498  355
2499  334
2500  329
2501  350
2502  300
2503  327
2504  323
2505  355
2506  346
2507  334
2508  330
2509  326
2510  387
2511  350
2512  346
2513  280
2514  343
2515  305
2516  297
2517  338
2518  346
2519  319
2520  323
2521  295
2522  326
2523  327
2524  324
2525  374
2526  310
2527  355
2528  330
2529  341
2530  312
2531  351
2532  340
2533  337
2534  338
2535  338
2536  312
2537  355
2538  328
2539  328
2540  315
2541  302
2542  326
2543  331
2544  311
2545  323
2546  306
2547  307
2548  322
2549  318
2550  298
2551  296
2552  305
2553  312
2554  310
2555  326
2556  315
2557  331
2558  338
2559  308
2560  303
2561  326
2562  355
2563  313
2564  331
2565  336
2566  334
2567  311
2568  336
2569  303
2570  355
2571  353
2572  306
2573  315
2574  311
2575  321
2576  313
2577  330
2578  296
2579  299
2580  297
2581  288
2582  270
2583  302
2584  290
2585  306
2586  282
2587  287
2588  275
2589  308
2590  326
2591  320
2592  306
2593  303
2594  298
2595  297
2596  332
2597  326
2598  296
2599  301
2600  284
2601  309
2602  332
2603  279
2604  298
2605  316
2606  295
2607  303
2608  311
2609  306
2610  358
2611  292
2612  324
2613  295
2614  276
2615  293
2616  313
2617  316
2618  272
2619  281
2620  280
2621  316
2622  294
2623  299
2624  293
2625  279
2626  258
2627  298
2628  278
2629  273
2630  301
2631  294
2632  294
2633  291
2634  307
2635  298
2636  270
2637  300
2638  305
2639  292
2640  261
2641  284
2642  267
2643  278
2644  311
2645  314
2646  298
2647  281
2648  262
2649  301
2650  247
2651  290
2652  252
2653  254
2654  312
2655  270
2656  263
2657  294
2658  267
2659  283
2660  248
2661  259
2662  279
2663  266
2664  276
2665  273
2666  268
2667  278
2668  239
2669  263
2670  275
2671  255
2672  286
2673  272
2674  269
2675  269
2676  283
2677  266
2678  269
2679  265
2680  270
2681  258
2682  256
2683  249
2684  275
2685  275
2686  270
2687  236
2688  255
2689  246
2690  239
2691  252
2692  233
2693  242
2694  230
2695  253
2696  270
2697  257
2698  245
2699  238
2700  232
2701  260
2702  239
2703  235
2704  245
2705  244
2706  291
2707  233
2708  280
2709  269
2710  247
2711  256
2712  231
2713  234
2714  255
2715  243
2716  244
2717  251
2718  208
2719  247
2720  234
2721  234
2722  262
2723  229
2724  243
2725  247
2726  204
2727  210
2728  263
2729  243
2730  253
2731  208
2732  227
2733  224
2734  234
2735  236
2736  241
2737  225
2738  224
2739  216
2740  250
2741  224
2742  230
2743  232
2744  271
2745  206
2746  220
2747  218
2748  217
2749  204
2750  206
2751  215
2752  213
2753  232
2754  222
2755  189
2756  235
2757  232
2758  192
2759  223
2760  228
2761  203
2762  202
2763  213
2764  218
2765  218
2766  226
2767  210
2768  224
2769  210
2770  210
2771  211
2772  204
2773  198
2774  203
2775  205
2776  185
2777  191
2778  222
2779  209
2780  204
2781  195
2782  193
2783  213
2784  186
2785  209
2786  171
2787  193
2788  180
2789  198
2790  192
2791  191
2792  181
2793  169
2794  208
2795  185
2796  173
2797  176
2798  196
2799  184
2800  202
2801  176
2802  181
2803  178
2804  189
2805  157
2806  161
2807  159
2808  186
2809  178
2810  196
2811  203
2812  170
2813  178
2814  182
2815  160
2816  176
2817  178
2818  196
2819  182
2820  164
2821  145
2822  163
2823  161
2824  178
2825  160
2826  184
2827  161
2828  152
2829  170
2830  161
2831  194
2832  156
2833  153
2834  149
2835  168
2836  163
2837  158
2838  157
2839  155
2840  154
2841  157
2842  140
2843  147
2844  151
2845  136
2846  156
2847  143
2848  171
2849  165
2850  162
2851  177
2852  146
2853  166
2854  167
2855  157
2856  144
2857  137
2858  137
2859  156
2860  139
2861  152
2862  140
2863  146
2864  159
2865  148
2866  132
2867  155
2868  141
2869  155
2870  150
2871  146
2872  152
2873  151
2874  161
2875  142
2876  128
2877  159
2878  120
2879  153
2880  142
2881  131
2882  141
2883  135
2884  135
2885  124
2886  128
2887  127
2888  137
2889  150
2890  136
2891  148
2892  139
2893  156
2894  135
2895  131
2896  146
2897  138
2898  131
2899  130
2900  122
2901  120
2902  139
2903  140
2904  130
2905  126
2906  128
2907  129
2908  131
2909  129
2910  134
2911  124
2912  144
2913  140
2914  152
2915  146
2916  140
2917  152
2918  136
2919  133
2920  122
2921  138
2922  129
2923  132
2924  138
2925  134
2926  135
2927  146
2928  147
2929  122
2930  128
2931  133
2932  132
2933  134
2934  140
2935  114
2936  124
2937  129
2938  120
2939  121
2940  135
2941  137
2942  123
2943  135
2944  133
2945  123
2946  134
2947  140
2948  127
2949  115
2950  139
2951  127
2952  143
2953  149
2954  122
2955  122
2956  117
2957  135
2958  139
2959  107
2960  110
2961  136
2962  126
2963  117
2964  138
2965  119
2966  132
2967  119
2968  114
2969  126
2970  119
2971  113
2972  116
2973  107
2974  114
2975  138
2976  137
2977  131
2978  133
2979  135
2980  120
2981  140
2982  137
2983  133
2984  116
2985  123
2986  127
2987  102
2988  102
2989  140
2990  127
2991  123
2992  131
2993  123
2994  123
2995  122
2996  126
2997  135
2998  116
2999  128
3000  113
3001  119
3002  122
3003  135
3004  102
3005  118
3006  119
3007  141
3008  107
3009  126
3010  126
3011  135
3012  150
3013  140
3014  125
3015  131
3016  134
3017  132
3018  135
3019  118
3020  123
3021  132
3022  111
3023  137
3024  106
3025  121
3026  93
3027  135
3028  113
3029  117
3030  136
3031  140
3032  128
3033  141
3034  129
3035  128
3036  116
3037  110
3038  128
3039  130
3040  97
3041  114
3042  120
3043  112
3044  123
3045  129
3046  89
3047  126
3048  123
3049  116
3050  112
3051  114
3052  94
3053  97
3054  118
3055  97
3056  116
3057  115
3058  133
3059  91
3060  120
3061  120
3062  124
3063  107
3064  115
3065  124
3066  109
3067  104
3068  104
3069  114
3070  96
3071  106
3072  123
3073  121
3074  116
3075  108
3076  112
3077  133
3078  107
3079  118
3080  90
3081  114
3082  117
3083  97
3084  124
3085  107
3086  107
3087  119
3088  110
3089  105
3090  128
3091  99
3092  94
3093  105
3094  109
3095  108
3096  145
3097  119
3098  132
3099  97
3100  95
3101  115
3102  106
3103  102
3104  114
3105  119
3106  120
3107  110
3108  107
3109  102
3110  107
3111  99
3112  109
3113  115
3114  106
3115  102
3116  126
3117  127
3118  102
3119  116
3120  110
3121  122
3122  86
3123  120
3124  121
3125  101
3126  106
3127  113
3128  126
3129  97
3130  117
3131  98
3132  118
3133  116
3134  141
3135  119
3136  116
3137  101
3138  106
3139  121
3140  125
3141  98
3142  108
3143  107
3144  128
3145  138
3146  137
3147  94
3148  106
3149  125
3150  114
3151  122
3152  141
3153  128
3154  105
3155  111
3156  146
3157  115
3158  100
3159  112
3160  104
3161  117
3162  121
3163  122
3164  123
3165  110
3166  101
3167  131
3168  123
3169  134
3170  102
3171  114
3172  125
3173  140
3174  122
3175  109
3176  130
3177  134
3178  125
3179  116
3180  107
3181  109
3182  114
3183  102
3184  131
3185  131
3186  127
3187  121
3188  113
3189  115
3190  108
3191  131
3192  112
3193  128
3194  132
3195  118
3196  111
3197  116
3198  135
3199  124
3200  128
3201  144
3202  122
3203  123
3204  127
3205  111
3206  130
3207  130
3208  139
3209  138
3210  117
3211  133
3212  113
3213  117
3214  135
3215  123
3216  113
3217  105
3218  122
3219  128
3220  126
3221  138
3222  125
3223  133
3224  128
3225  167
3226  136
3227  148
3228  130
3229  126
3230  123
3231  131
3232  126
3233  133
3234  129
3235  127
3236  131
3237  118
3238  128
3239  133
3240  131
3241  115
3242  106
3243  122
3244  129
3245  132
3246  159
3247  148
3248  133
3249  113
3250  115
3251  139
3252  114
3253  150
3254  137
3255  117
3256  138
3257  130
3258  125
3259  109
3260  151
3261  131
3262  140
3263  135
3264  134
3265  132
3266  127
3267  136
3268  130
3269  136
3270  125
3271  152
3272  134
3273  158
3274  148
3275  134
3276  141
3277  124
3278  153
3279  135
3280  132
3281  160
3282  146
3283  147
3284  148
3285  143
3286  135
3287  125
3288  147
3289  141
3290  157
3291  138
3292  163
3293  144
3294  135
3295  147
3296  147
3297  143
3298  135
3299  172
3300  144
3301  147
3302  139
3303  147
3304  132
3305  173
3306  128
3307  178
3308  136
3309  142
3310  152
3311  187
3312  140
3313  148
3314  146
3315  160
3316  142
3317  162
3318  144
3319  154
3320  150
3321  137
3322  157
3323  152
3324  152
3325  150
3326  155
3327  157
3328  139
3329  148
3330  158
3331  136
3332  160
3333  164
3334  139
3335  173
3336  162
3337  152
3338  162
3339  182
3340  171
3341  160
3342  152
3343  172
3344  168
3345  180
3346  164
3347  169
3348  155
3349  180
3350  161
3351  162
3352  169
3353  183
3354  154
3355  174
3356  158
3357  176
3358  184
3359  159
3360  147
3361  168
3362  176
3363  152
3364  170
3365  179
3366  176
3367  174
3368  175
3369  183
3370  172
3371  181
3372  179
3373  177
3374  185
3375  177
3376  181
3377  152
3378  146
3379  198
3380  148
3381  190
3382  183
3383  184
3384  194
3385  175
3386  187
3387  195
3388  198
3389  195
3390  200
3391  179
3392  174
3393  164
3394  201
3395  202
3396  203
3397  186
3398  175
3399  190
3400  203
3401  182
3402  221
3403  192
3404  214
3405  187
3406  194
3407  174
3408  200
3409  178
3410  224
3411  211
3412  210
3413  219
3414  198
3415  194
3416  195
3417  210
3418  194
3419  182
3420  181
3421  196
3422  216
3423  198
3424  214
3425  203
3426  227
3427  189
3428  208
3429  210
3430  228
3431  216
3432  199
3433  228
3434  213
3435  228
3436  243
3437  259
3438  240
3439  235
3440  260
3441  246
3442  261
3443  315
3444  285
3445  333
3446  357
3447  362
3448  388
3449  458
3450  522
3451  588
3452  612
3453  739
3454  826
3455  1028
3456  1119
3457  1388
3458  1548
3459  1687
3460  1993
3461  2178
3462  2429
3463  2888
3464  3058
3465  3422
3466  3676
3467  3752
3468  4222
3469  4402
3470  4586
3471  4750
3472  4882
3473  5108
3474  5072
3475  5172
3476  5085
3477  5162
3478  5067
3479  4936
3480  4810
3481  4681
3482  4329
3483  4198
3484  4010
3485  3706
3486  3469
3487  3174
3488  3054
3489  2778
3490  2743
3491  2481
3492  2227
3493  2052
3494  1877
3495  1751
3496  1638
3497  1511
3498  1419
3499  1301
3500  1288
3501  1200
3502  1129
3503  1104
3504  967
3505  898
3506  872
3507  814
3508  784
3509  808
3510  683
3511  612
3512  652
3513  588
3514  599
3515  542
3516  529
3517  488
3518  443
3519  462
3520  447
3521  438
3522  434
3523  419
3524  383
3525  380
3526  395
3527  425
3528  400
3529  460
3530  424
3531  489
3532  508
3533  576
3534  595
3535  644
3536  736
3537  875
3538  981
3539  1210
3540  1233
3541  1480
3542  1711
3543  1906
3544  2262
3545  2555
3546  2851
3547  3134
3548  3390
3549  3825
3550  4035
3551  4405
3552  4777
3553  5009
3554  5394
3555  5696
3556  5847
3557  5983
3558  6221
3559  6156
3560  6378
3561  6340
3562  6328
3563  6284
3564  6199
3565  6109
3566  5957
3567  5684
3568  5568
3569  5338
3570  5108
3571  4990
3572  4646
3573  4600
3574  4187
3575  4004
3576  3786
3577  3546
3578  3291
3579  3235
3580  2972
3581  2804
3582  2728
3583  2591
3584  2341
3585  2157
3586  2056
3587  1919
3588  1862
3589  1745
3590  1694
3591  1604
3592  1498
3593  1395
3594  1407
3595  1378
3596  1251
3597  1244
3598  1176
3599  1138
3600  1140
3601  1075
3602  1046
3603  1029
3604  977
3605  971
3606  986
3607  955
3608  939
3609  946
3610  911
3611  860
3612  890
3613  949
3614  872
3615  900
3616  990
3617  914
3618  898
3619  899
3620  836
3621  900
3622  875
3623  895
3624  860
3625  836
3626  878
3627  941
3628  907
3629  930
3630  921
3631  862
3632  889
3633  957
3634  932
3635  920
3636  913
3637  946
3638  920
3639  863
3640  907
3641  940
3642  936
3643  877
3644  926
3645  884
3646  860
3647  891
3648  807
3649  889
3650  777
3651  809
3652  756
3653  742
3654  742
3655  731
3656  680
3657  713
3658  721
3659  658
3660  668
3661  645
3662  625
3663  597
3664  556
3665  579
3666  586
3667  540
3668  568
3669  506
3670  506
3671  518
3672  502
3673  521
3674  480
3675  483
3676  455
3677  445
3678  439
3679  413
3680  417
3681  386
3682  380
3683  357
3684  357
3685  340
3686  336
3687  360
3688  320
3689  337
3690  338
3691  343
3692  328
3693  322
3694  327
3695  288
3696  307
3697  303
3698  285
3699  285
3700  286
3701  273
3702  292
3703  305
3704  305
3705  299
3706  335
3707  273
3708  309
3709  318
3710  329
3711  325
3712  324
3713  298
3714  399
3715  387
3716  452
3717  439
3718  492
3719  560
3720  608
3721  672
3722  787
3723  884
3724  922
3725  1057
3726  1186
3727  1337
3728  1530
3729  1755
3730  1915
3731  1988
3732  2266
3733  2465
3734  2582
3735  2725
3736  2925
3737  2987
3738  3167
3739  3258
3740  3300
3741  3382
3742  3371
3743  3298
3744  3390
3745  3228
3746  3324
3747  3125
3748  3047
3749  2820
3750  2850
3751  2683
3752  2444
3753  2357
3754  2210
3755  2165
3756  1935
3757  1803
3758  1682
3759  1594
3760  1490
3761  1403
3762  1228
3763  1238
3764  1176
3765  1067
3766  1021
3767  965
3768  843
3769  863
3770  801
3771  754
3772  768
3773  706
3774  683
3775  602
3776  653
3777  642
3778  621
3779  587
3780  574
3781  506
3782  465
3783  462
3784  469
3785  445
3786  414
3787  424
3788  398
3789  417
3790  418
3791  354
3792  392
3793  379
3794  338
3795  344
3796  337
3797  338
3798  331
3799  347
3800  322
3801  312
3802  293
3803  312
3804  298
3805  315
3806  306
3807  325
3808  263
3809  324
3810  301
3811  319
3812  294
3813  273
3814  289
3815  330
3816  296
3817  279
3818  292
3819  315
3820  284
3821  287
3822  272
3823  286
3824  272
3825  310
3826  278
3827  278
3828  294
3829  286
3830  260
3831  294
3832  261
3833  322
3834  298
3835  287
3836  266
3837  267
3838  278
3839  297
3840  0
3841  0
3842  0
3843  0
3844  0
3845  0
3846  0
3847  0
3848  0
3849  0
3850  0
3851  0
3852  0
3853  0
3854  0
3855  0
3856  0
3857  0
3858  0
3859  0
3860  0
3861  0
3862  0
3863  0
3864  0
3865  0
3866  0
3867  0
3868  0
3869  0
3870  0
3871  0
3872  0
3873  0
3874  0
3875  0
3876  0
3877  0
3878  0
3879  0
3880  0
3881  0
3882  0
3883  0
3884  0
3885  0
3886  0
3887  0
3888  0
3889  0
3890  0
3891  0
3892  0
3893  0
3894  0
3895  0
3896  0
3897  0
3898  0
3899  0
3900  0
3901  0
3902  0
3903  0
3904  0
3905  0
3906  0
3907  0
3908  0
3909  0
3910  0
3911  0
3912  0
3913  0
3914  0
3915  0
3916  0
3917  0
3918  0
3919  0
3920  0
3921  0
3922  0
3923  0
3924  0
3925  0
3926  0
3927  0
3928  0
3929  0
3930  0
3931  0
3932  0
3933  0
3934  0
3935  0
3936  0
3937  0
3938  0
3939  0
3940  0
3941  0
3942  0
3943  0
3944  0
3945  0
3946  0
3947  0
3948  0
3949  0
3950  0
3951  0
3952  0
3953  0
3954  0
3955  0
3956  0
3957  0
3958  0
3959  0
3960  0
3961  0
3962  0
3963  0
3964  0
3965  0
3966  0
3967  0
3968  0
3969  0
3970  0
3971  0
3972  0
3973  0
3974  0
3975  0
3976  0
3977  0
3978  0
3979  0
3980  0
3981  0
3982  0
3983  0
3984  0
3985  0
3986  0
3987  0
3988  0
3989  0
3990  0
3991  0
3992  0
3993  0
3994  0
3995  0
3996  0
3997  0
3998  0
3999  0
4000  0
4001  0
4002  0
4003  0
4004  0
4005  0
4006  0
4007  0
4008  0
4009  0
4010  0
4011  0
4012  0
4013  0
4014  0
4015  0
4016  0
4017  0
4018  0
4019  0
4020  0
4021  0
4022  0
4023  0
4024  0
4025  0
4026  0
4027  0
4028  0
4029  0
4030  0
4031  0
4032  0
4033  0
4034  0
4035  0
4036  0
4037  0
4038  0
4039  0
4040  0
4041  0
4042  0
4043  0
4044  0
4045  0
4046  0
4047  0
4048  0
4049  0
4050  0
4051  0
4052  0
4053  0
4054  0
4055  0
4056  0
4057  0
4058  0
4059  0
4060  0
4061  0
4062  0
4063  0
4064  0
4065  0
4066  0
4067  0
4068  0
4069  0
4070  0
4071  0
4072  0
4073  0
4074  0
4075  0
4076  0
4077  0
4078  0
4079  0
4080  0
4081  0
4082  0
4083  0
4084  0
4085  0
4086  0
4087  0
4088  0
4089  0
4090  0
4091  0
4092  0
4093  0
4094  0
4095  0
