0  718
1  834
2  953
3  1172
4  1310
5  1502
6  1746
7  1907
8  2052
9  2184
10  2276
11  2467
12  2532
13  2696
14  2625
15  2650
16  2812
17  2660
18  2563
19  2365
20  2203
21  2081
22  1951
23  1725
24  1558
25  1248
26  1207
27  1006
28  780
29  673
30  516
31  432
32  372
33  285
34  226
35  162
36  144
37  105
38  63
39  53
40  31
41  38
42  18
43  9
44  11
45  10
46  4
47  4
48  0
49  4
50  0
51  3
52  0
53  1
54  0
55  0
56  0
57  0
58  0
59  0
60  0
61  0
62  0
63  0
64  0
65  0
66  0
67  0
68  0
69  0
70  0
71  1
72  0
73  0
74  0
75  0
76  0
77  0
78  0
79  1
80  0
81  0
82  0
83  0
84  0
85  0
86  0
87  0
88  0
89  0
90  0
91  0
92  0
93  1
94  0
95  0
96  0
97  0
98  0
99  0
100  0
101  0
102  0
103  0
104  0
105  0
106  0
107  0
108  0
109  0
110  0
111  0
112  0
113  0
114  0
115  0
116  0
117  0
118  0
119  0
120  0
121  0
122  0
123  0
124  0
125  0
126  0
127  1
128  0
129  0
130  0
131  0
132  0
133  0
134  0
135  0
136  0
137  0
138  0
139  0
140  0
141  1
142  1
143  0
144  0
145  0
146  0
147  0
148  0
149  0
150  0
151  0
152  0
153  0
154  0
155  0
156  0
157  0
158  0
159  0
160  0
161  0
162  0
163  0
164  0
165  0
166  0
167  0
168  0
169  0
170  0
171  0
172  0
173  0
174  0
175  0
176  0
177  0
178  1
179  0
180  0
181  0
182  0
183  0
184  2
185  2
186  2
187  1
188  2
189  5
190  4
191  7
192  10
193  6
194  17
195  26
196  21
197  26
198  33
199  45
200  41
201  81
202  75
203  106
204  103
205  138
206  169
207  196
208  208
209  224
210  263
211  282
212  308
213  370
214  382
215  386
216  408
217  412
218  436
219  403
220  441
221  419
222  398
223  400
224  413
225  404
226  330
227  367
228  327
229  359
230  277
231  264
232  251
233  239
234  196
235  205
236  169
237  172
238  142
239  134
240  130
241  102
242  108
243  103
244  112
245  95
246  108
247  107
248  86
249  103
250  106
251  93
252  102
253  106
254  90
255  107
256  93
257  95
258  94
259  85
260  99
261  95
262  99
263  95
264  98
265  81
266  92
267  95
268  91
269  97
270  99
271  84
272  94
273  96
274  84
275  82
276  98
277  102
278  93
279  97
280  74
281  103
282  70
283  77
284  92
285  80
286  89
287  82
288  97
289  88
290  107
291  86
292  90
293  70
294  79
295  90
296  92
297  87
298  80
299  90
300  78
301  122
302  83
303  95
304  99
305  87
306  97
307  95
308  100
309  102
310  103
311  96
312  107
313  101
314  98
315  99
316  82
317  108
318  78
319  95
320  95
321  88
322  95
323  71
324  100
325  85
326  92
327  88
328  86
329  90
330  82
331  102
332  83
333  104
334  81
335  92
336  94
337  99
338  102
339  77
340  102
341  105
342  88
343  85
344  86
345  84
346  94
347  79
348  91
349  93
350  89
351  94
352  109
353  94
354  98
355  83
356  91
357  74
358  106
359  109
360  109
361  105
362  80
363  96
364  80
365  103
366  98
367  92
368  90
369  105
370  101
371  113
372  104
373  95
374  74
375  103
376  95
377  98
378  97
379  93
380  89
381  96
382  113
383  92
384  102
385  101
386  95
387  89
388  98
389  84
390  91
391  102
392  100
393  82
394  95
395  118
396  91
397  96
398  92
399  90
400  101
401  102
402  101
403  102
404  93
405  90
406  107
407  104
408  93
409  79
410  102
411  94
412  90
413  95
414  93
415  93
416  70
417  104
418  103
419  102
420  127
421  102
422  95
423  109
424  86
425  86
426  95
427  107
428  92
429  82
430  81
431  101
432  115
433  93
434  98
435  107
436  96
437  97
438  99
439  94
440  93
441  93
442  107
443  91
444  94
445  93
446  93
447  92
448  81
449  93
450  111
451  103
452  100
453  83
454  95
455  83
456  82
457  75
458  93
459  92
460  90
461  88
462  89
463  98
464  116
465  87
466  101
467  78
468  96
469  89
470  105
471  88
472  103
473  92
474  81
475  102
476  109
477  105
478  85
479  105
480  99
481  101
482  104
483  87
484  86
485  89
486  93
487  100
488  86
489  81
490  88
491  95
492  114
493  82
494  100
495  101
496  107
497  94
498  75
499  93
500  91
501  87
502  100
503  91
504  93
505  106
506  96
507  106
508  83
509  91
510  97
511  93
512  82
513  92
514  92
515  85
516  93
517  79
518  75
519  84
520  97
521  98
522  110
523  89
524  86
525  113
526  93
527  89
528  85
529  95
530  101
531  78
532  93
533  79
534  84
535  82
536  97
537  88
538  85
539  84
540  94
541  72
542  77
543  84
544  92
545  103
546  101
547  82
548  97
549  81
550  102
551  104
552  79
553  93
554  90
555  101
556  70
557  80
558  103
559  94
560  84
561  93
562  99
563  91
564  74
565  95
566  87
567  93
568  99
569  101
570  88
571  99
572  90
573  88
574  93
575  94
576  106
577  99
578  101
579  94
580  96
581  82
582  74
583  90
584  79
585  79
586  109
587  88
588  76
589  89
590  93
591  78
592  84
593  103
594  124
595  89
596  89
597  74
598  81
599  90
600  78
601  92
602  92
603  108
604  103
605  77
606  86
607  110
608  98
609  86
610  88
611  81
612  80
613  93
614  90
615  83
616  96
617  97
618  87
619  85
620  91
621  77
622  79
623  84
624  73
625  71
626  88
627  64
628  84
629  90
630  92
631  76
632  99
633  82
634  83
635  81
636  82
637  69
638  103
639  76
640  91
641  76
642  73
643  92
644  80
645  83
646  82
647  87
648  81
649  88
650  78
651  78
652  87
653  67
654  89
655  85
656  76
657  62
658  76
659  84
660  76
661  89
662  58
663  83
664  77
665  74
666  85
667  83
668  86
669  75
670  96
671  68
672  85
673  74
674  70
675  80
676  76
677  73
678  81
679  70
680  71
681  63
682  84
683  75
684  80
685  80
686  80
687  71
688  83
689  90
690  87
691  81
692  60
693  106
694  82
695  76
696  71
697  85
698  68
699  79
700  87
701  80
702  77
703  75
704  76
705  80
706  63
707  61
708  73
709  64
710  64
711  79
712  67
713  94
714  71
715  70
716  73
717  67
718  76
719  80
720  68
721  85
722  69
723  69
724  76
725  48
726  78
727  92
728  82
729  65
730  81
731  77
732  74
733  76
734  70
735  79
736  65
737  58
738  65
739  74
740  79
741  72
742  75
743  66
744  72
745  68
746  77
747  60
748  81
749  70
750  74
751  72
752  73
753  57
754  89
755  60
756  79
757  67
758  72
759  46
760  73
761  64
762  68
763  72
764  72
765  76
766  70
767  65
768  72
769  73
770  83
771  59
772  71
773  57
774  61
775  91
776  61
777  59
778  63
779  69
780  77
781  73
782  58
783  59
784  73
785  74
786  60
787  62
788  55
789  62
790  65
791  62
792  61
793  56
794  75
795  63
796  71
797  68
798  66
799  62
800  56
801  65
802  65
803  75
804  63
805  69
806  51
807  55
808  52
809  49
810  52
811  53
812  49
813  59
814  48
815  59
816  67
817  48
818  76
819  68
820  61
821  53
822  50
823  51
824  64
825  43
826  67
827  60
828  64
829  59
830  59
831  68
832  41
833  56
834  71
835  64
836  47
837  54
838  46
839  48
840  52
841  47
842  42
843  40
844  38
845  52
846  61
847  52
848  41
849  44
850  44
851  49
852  50
853  53
854  50
855  43
856  41
857  54
858  38
859  56
860  45
861  59
862  45
863  43
864  47
865  37
866  53
867  41
868  46
869  46
870  36
871  46
872  36
873  47
874  56
875  35
876  43
877  50
878  38
879  43
880  44
881  40
882  43
883  43
884  50
885  40
886  30
887  47
888  44
889  41
890  41
891  30
892  54
893  52
894  49
895  40
896  39
897  43
898  44
899  39
900  49
901  37
902  32
903  40
904  46
905  46
906  43
907  43
908  40
909  47
910  44
911  36
912  46
913  34
914  37
915  33
916  40
917  34
918  35
919  26
920  39
921  41
922  46
923  27
924  31
925  44
926  39
927  38
928  31
929  40
930  29
931  38
932  46
933  42
934  36
935  38
936  33
937  37
938  35
939  24
940  37
941  30
942  40
943  37
944  20
945  34
946  37
947  33
948  33
949  40
950  31
951  33
952  41
953  30
954  47
955  45
956  44
957  29
958  27
959  39
960  33
961  32
962  37
963  39
964  36
965  34
966  31
967  36
968  43
969  35
970  33
971  34
972  40
973  34
974  35
975  50
976  29
977  48
978  33
979  33
980  27
981  32
982  36
983  25
984  46
985  31
986  40
987  27
988  41
989  41
990  40
991  34
992  33
993  30
994  31
995  41
996  45
997  27
998  34
999  44
1000  37
1001  30
1002  26
1003  34
1004  33
1005  41
1006  33
1007  50
1008  36
1009  41
1010  37
1011  26
1012  36
1013  31
1014  35
1015  23
1016  34
1017  37
1018  29
1019  28
1020  36
1021  48
1022  38
1023  34
1024  33
1025  33
1026  24
1027  37
1028  36
1029  41
1030  40
1031  39
1032  33
1033  37
1034  40
1035  36
1036  33
1037  25
1038  38
1039  45
1040  36
1041  31
1042  36
1043  39
1044  34
1045  36
1046  38
1047  33
1048  47
1049  40
1050  34
1051  37
1052  36
1053  42
1054  35
1055  27
1056  36
1057  38
1058  34
1059  33
1060  35
1061  36
1062  34
1063  35
1064  41
1065  46
1066  40
1067  39
1068  34
1069  42
1070  30
1071  24
1072  32
1073  29
1074  26
1075  27
1076  33
1077  34
1078  37
1079  32
1080  34
1081  37
1082  43
1083  32
1084  23
1085  31
1086  38
1087  26
1088  27
1089  28
1090  31
1091  23
1092  32
1093  24
1094  36
1095  35
1096  30
1097  33
1098  35
1099  32
1100  28
1101  20
1102  38
1103  19
1104  24
1105  27
1106  31
1107  26
1108  24
1109  34
1110  29
1111  30
1112  32
1113  28
1114  28
1115  31
1116  29
1117  37
1118  27
1119  24
1120  26
1121  37
1122  33
1123  31
1124  29
1125  20
1126  30
1127  31
1128  36
1129  28
1130  21
1131  37
1132  25
1133  29
1134  19
1135  32
1136  34
1137  29
1138  33
1139  30
1140  21
1141  39
1142  33
1143  25
1144  29
1145  23
1146  36
1147  24
1148  27
1149  37
1150  30
1151  26
1152  18
1153  26
1154  27
1155  44
1156  28
1157  23
1158  34
1159  31
1160  32
1161  21
1162  27
1163  28
1164  29
1165  26
1166  31
1167  32
1168  35
1169  37
1170  17
1171  35
1172  39
1173  19
1174  23
1175  28
1176  30
1177  34
1178  33
1179  35
1180  28
1181  30
1182  39
1183  28
1184  27
1185  28
1186  32
1187  33
1188  30
1189  35
1190  28
1191  34
1192  26
1193  38
1194  29
1195  33
1196  29
1197  34
1198  36
1199  31
1200  32
1201  34
1202  27
1203  39
1204  38
1205  32
1206  38
1207  30
1208  31
1209  25
1210  47
1211  33
1212  34
1213  43
1214  27
1215  38
1216  41
1217  44
1218  25
1219  45
1220  37
1221  38
1222  37
1223  43
1224  31
1225  30
1226  26
1227  37
1228  40
1229  24
1230  40
1231  49
1232  29
1233  35
1234  35
1235  30
1236  29
1237  28
1238  27
1239  28
1240  34
1241  34
1242  39
1243  30
1244  32
1245  34
1246  41
1247  33
1248  31
1249  34
1250  33
1251  33
1252  37
1253  39
1254  37
1255  32
1256  35
1257  40
1258  41
1259  32
1260  32
1261  36
1262  28
1263  34
1264  32
1265  32
1266  43
1267  47
1268  32
1269  33
1270  37
1271  32
1272  35
1273  25
1274  40
1275  46
1276  33
1277  42
1278  38
1279  33
1280  34
1281  40
1282  41
1283  41
1284  28
1285  45
1286  36
1287  44
1288  45
1289  42
1290  38
1291  32
1292  41
1293  32
1294  40
1295  39
1296  32
1297  39
1298  34
1299  35
1300  36
1301  37
1302  30
1303  34
1304  41
1305  48
1306  43
1307  49
1308  45
1309  43
1310  42
1311  26
1312  42
1313  38
1314  36
1315  35
1316  34
1317  33
1318  37
1319  30
1320  44
1321  31
1322  39
1323  37
1324  26
1325  29
1326  32
1327  36
1328  46
1329  39
1330  51
1331  42
1332  40
1333  37
1334  34
1335  31
1336  40
1337  41
1338  35
1339  36
1340  36
1341  46
1342  43
1343  41
1344  36
1345  46
1346  50
1347  41
1348  35
1349  40
1350  39
1351  35
1352  28
1353  39
1354  39
1355  40
1356  51
1357  35
1358  49
1359  49
1360  40
1361  37
1362  45
1363  38
1364  43
1365  33
1366  40
1367  53
1368  51
1369  45
1370  42
1371  36
1372  40
1373  46
1374  34
1375  48
1376  45
1377  35
1378  43
1379  41
1380  55
1381  37
1382  37
1383  28
1384  35
1385  37
1386  35
1387  44
1388  55
1389  37
1390  46
1391  43
1392  44
1393  45
1394  53
1395  41
1396  37
1397  52
1398  49
1399  64
1400  43
1401  36
1402  43
1403  40
1404  45
1405  38
1406  47
1407  42
1408  39
1409  45
1410  53
1411  43
1412  50
1413  32
1414  33
1415  43
1416  57
1417  53
1418  39
1419  51
1420  38
1421  38
1422  41
1423  40
1424  50
1425  53
1426  35
1427  47
1428  41
1429  42
1430  36
1431  39
1432  61
1433  32
1434  45
1435  46
1436  34
1437  38
1438  52
1439  41
1440  52
1441  48
1442  55
1443  53
1444  47
1445  47
1446  38
1447  43
1448  56
1449  53
1450  54
1451  44
1452  39
1453  44
1454  50
1455  50
1456  44
1457  38
1458  46
1459  46
1460  35
1461  52
1462  49
1463  46
1464  44
1465  52
1466  54
1467  51
1468  54
1469  53
1470  66
1471  47
1472  47
1473  54
1474  36
1475  49
1476  48
1477  45
1478  49
1479  47
1480  40
1481  58
1482  50
1483  42
1484  54
1485  51
1486  47
1487  55
1488  61
1489  49
1490  44
1491  51
1492  55
1493  47
1494  55
1495  48
1496  56
1497  49
1498  46
1499  59
1500  56
1501  41
1502  55
1503  34
1504  48
1505  56
1506  51
1507  40
1508  49
1509  53
1510  54
1511  53
1512  51
1513  50
1514  63
1515  67
1516  57
1517  56
1518  49
1519  56
1520  68
1521  58
1522  63
1523  52
1524  64
1525  56
1526  59
1527  56
1528  59
1529  57
1530  67
1531  62
1532  50
1533  57
1534  51
1535  66
1536  77
1537  60
1538  66
1539  65
1540  67
1541  59
1542  59
1543  69
1544  59
1545  70
1546  66
1547  71
1548  73
1549  81
1550  74
1551  69
1552  74
1553  85
1554  75
1555  85
1556  100
1557  100
1558  102
1559  97
1560  105
1561  122
1562  113
1563  134
1564  164
1565  180
1566  192
1567  189
1568  287
1569  271
1570  349
1571  471
1572  574
1573  623
1574  739
1575  841
1576  1014
1577  1130
1578  1328
1579  1493
1580  1771
1581  1982
1582  2228
1583  2412
1584  2632
1585  2908
1586  3175
1587  3333
1588  3610
1589  3569
1590  3787
1591  4022
1592  4149
1593  4097
1594  3941
1595  4020
1596  4041
1597  4000
1598  3817
1599  3666
1600  3582
1601  3507
1602  3201
1603  3010
1604  2867
1605  2542
1606  2535
1607  2255
1608  2017
1609  1874
1610  1725
1611  1578
1612  1467
1613  1408
1614  1283
1615  1159
1616  1059
1617  991
1618  955
1619  921
1620  818
1621  749
1622  690
1623  589
1624  590
1625  592
1626  531
1627  468
1628  471
1629  421
1630  382
1631  375
1632  364
1633  332
1634  308
1635  272
1636  237
1637  265
1638  230
1639  205
1640  207
1641  151
1642  171
1643  174
1644  149
1645  142
1646  125
1647  143
1648  114
1649  113
1650  112
1651  116
1652  116
1653  82
1654  83
1655  65
1656  84
1657  68
1658  69
1659  77
1660  78
1661  85
1662  66
1663  68
1664  85
1665  74
1666  81
1667  77
1668  71
1669  70
1670  67
1671  56
1672  71
1673  67
1674  66
1675  77
1676  81
1677  62
1678  69
1679  61
1680  54
1681  64
1682  64
1683  56
1684  65
1685  82
1686  68
1687  64
1688  77
1689  52
1690  66
1691  71
1692  63
1693  53
1694  57
1695  79
1696  62
1697  64
1698  66
1699  54
1700  64
1701  65
1702  74
1703  53
1704  67
1705  74
1706  68
1707  66
1708  67
1709  72
1710  58
1711  67
1712  69
1713  68
1714  52
1715  61
1716  69
1717  60
1718  64
1719  73
1720  78
1721  57
1722  65
1723  54
1724  50
1725  60
1726  73
1727  72
1728  71
1729  55
1730  64
1731  53
1732  70
1733  82
1734  67
1735  67
1736  65
1737  65
1738  73
1739  79
1740  65
1741  75
1742  81
1743  71
1744  82
1745  73
1746  68
1747  73
1748  73
1749  64
1750  66
1751  71
1752  73
1753  72
1754  83
1755  54
1756  70
1757  62
1758  80
1759  68
1760  77
1761  65
1762  79
1763  69
1764  71
1765  75
1766  78
1767  63
1768  68
1769  74
1770  73
1771  69
1772  72
1773  65
1774  72
1775  73
1776  82
1777  69
1778  60
1779  67
1780  60
1781  60
1782  70
1783  72
1784  75
1785  60
1786  64
1787  63
1788  77
1789  68
1790  53
1791  72
1792  69
1793  67
1794  64
1795  63
1796  77
1797  69
1798  70
1799  64
1800  54
1801  71
1802  82
1803  66
1804  74
1805  66
1806  68
1807  74
1808  71
1809  71
1810  64
1811  65
1812  66
1813  67
1814  90
1815  72
1816  79
1817  64
1818  74
1819  83
1820  90
1821  75
1822  67
1823  59
1824  64
1825  82
1826  69
1827  77
1828  69
1829  65
1830  65
1831  76
1832  91
1833  66
1834  48
1835  72
1836  71
1837  81
1838  55
1839  77
1840  69
1841  78
1842  86
1843  86
1844  80
1845  73
1846  67
1847  69
1848  80
1849  68
1850  62
1851  78
1852  71
1853  72
1854  70
1855  62
1856  70
1857  102
1858  79
1859  83
1860  80
1861  57
1862  73
1863  67
1864  72
1865  64
1866  67
1867  73
1868  80
1869  78
1870  81
1871  83
1872  76
1873  58
1874  84
1875  86
1876  85
1877  76
1878  77
1879  72
1880  71
1881  83
1882  67
1883  76
1884  71
1885  74
1886  86
1887  73
1888  82
1889  70
1890  82
1891  79
1892  61
1893  82
1894  68
1895  88
1896  82
1897  76
1898  88
1899  70
1900  59
1901  86
1902  83
1903  83
1904  79
1905  86
1906  76
1907  74
1908  70
1909  74
1910  93
1911  86
1912  79
1913  61
1914  75
1915  80
1916  72
1917  77
1918  95
1919  71
1920  75
1921  94
1922  80
1923  89
1924  86
1925  74
1926  83
1927  71
1928  93
1929  82
1930  87
1931  95
1932  80
1933  89
1934  63
1935  106
1936  95
1937  82
1938  65
1939  84
1940  76
1941  93
1942  95
1943  78
1944  70
1945  72
1946  87
1947  76
1948  71
1949  91
1950  68
1951  83
1952  78
1953  76
1954  73
1955  77
1956  82
1957  82
1958  71
1959  91
1960  80
1961  78
1962  77
1963  86
1964  77
1965  94
1966  92
1967  79
1968  88
1969  75
1970  80
1971  85
1972  89
1973  76
1974  82
1975  87
1976  82
1977  81
1978  91
1979  84
1980  85
1981  91
1982  71
1983  73
1984  85
1985  71
1986  59
1987  79
1988  95
1989  97
1990  72
1991  85
1992  90
1993  72
1994  87
1995  79
1996  92
1997  89
1998  79
1999  72
2000  81
2001  78
2002  72
2003  96
2004  82
2005  93
2006  69
2007  73
2008  76
2009  80
2010  82
2011  89
2012  87
2013  69
2014  73
2015  72
2016  102
2017  73
2018  89
2019  86
2020  69
2021  76
2022  98
2023  97
2024  82
2025  95
2026  87
2027  93
2028  77
2029  94
2030  82
2031  88
2032  94
2033  89
2034  81
2035  82
2036  99
2037  99
2038  89
2039  79
2040  76
2041  61
2042  88
2043  98
2044  86
2045  75
2046  93
2047  77
2048  75
2049  92
2050  62
2051  80
2052  89
2053  99
2054  93
2055  61
2056  64
2057  109
2058  85
2059  77
2060  89
2061  91
2062  100
2063  88
2064  84
2065  103
2066  79
2067  97
2068  76
2069  77
2070  94
2071  84
2072  88
2073  96
2074  94
2075  99
2076  78
2077  93
2078  104
2079  77
2080  101
2081  101
2082  74
2083  72
2084  85
2085  69
2086  84
2087  90
2088  91
2089  87
2090  94
2091  101
2092  87
2093  86
2094  94
2095  90
2096  74
2097  80
2098  65
2099  92
2100  89
2101  83
2102  75
2103  83
2104  87
2105  98
2106  82
2107  99
2108  91
2109  102
2110  113
2111  107
2112  81
2113  86
2114  86
2115  96
2116  91
2117  92
2118  84
2119  89
2120  113
2121  83
2122  100
2123  102
2124  82
2125  111
2126  77
2127  89
2128  99
2129  93
2130  72
2131  93
2132  88
2133  90
2134  81
2135  90
2136  95
2137  87
2138  73
2139  98
2140  79
2141  82
2142  89
2143  115
2144  95
2145  87
2146  82
2147  101
2148  89
2149  92
2150  100
2151  97
2152  87
2153  114
2154  94
2155  116
2156  82
2157  77
2158  94
2159  86
2160  83
2161  100
2162  72
2163  88
2164  88
2165  93
2166  81
2167  101
2168  104
2169  99
2170  79
2171  101
2172  77
2173  85
2174  87
2175  87
2176  92
2177  115
2178  80
2179  90
2180  83
2181  94
2182  103
2183  90
2184  86
2185  73
2186  101
2187  96
2188  91
2189  73
2190  79
2191  96
2192  103
2193  82
2194  88
2195  94
2196  90
2197  88
2198  99
2199  106
2200  89
2201  76
2202  111
2203  65
2204  97
2205  103
2206  87
2207  94
2208  87
2209  96
2210  85
2211  100
2212  88
2213  82
2214  85
2215  89
2216  104
2217  89
2218  119
2219  90
2220  84
2221  99
2222  86
2223  96
2224  96
2225  78
2226  92
2227  88
2228  116
2229  100
2230  99
2231  90
2232  77
2233  82
2234  90
2235  91
2236  98
2237  95
2238  76
2239  93
2240  84
2241  92
2242  89
2243  89
2244  74
2245  98
2246  109
2247  93
2248  84
2249  74
2250  94
2251  96
2252  97
2253  91
2254  100
2255  96
2256  91
2257  90
2258  87
2259  94
2260  96
2261  80
2262  92
2263  100
2264  89
2265  109
2266  99
2267  107
2268  111
2269  101
2270  101
2271  91
2272  83
2273  84
2274  107
2275  106
2276  88
2277  92
2278  101
2279  106
2280  92
2281  105
2282  93
2283  102
2284  102
2285  87
2286  92
2287  106
2288  93
2289  83
2290  93
2291  108
2292  91
2293  93
2294  101
2295  83
2296  97
2297  99
2298  74
2299  102
2300  99
2301  88
2302  92
2303  85
2304  91
2305  83
2306  95
2307  86
2308  125
2309  99
2310  81
2311  98
2312  96
2313  101
2314  78
2315  100
2316  99
2317  110
2318  81
2319  90
2320  102
2321  87
2322  88
2323  112
2324  99
2325  100
2326  91
2327  82
2328  96
2329  106
2330  113
2331  82
2332  86
2333  85
2334  85
2335  66
2336  104
2337  78
2338  94
2339  101
2340  83
2341  110
2342  92
2343  84
2344  86
2345  79
2346  102
2347  89
2348  107
2349  94
2350  94
2351  83
2352  92
2353  108
2354  85
2355  97
2356  85
2357  96
2358  92
2359  97
2360  89
2361  96
2362  109
2363  94
2364  113
2365  83
2366  87
2367  91
2368  76
2369  74
2370  92
2371  109
2372  84
2373  84
2374  85
2375  93
2376  86
2377  89
2378  92
2379  88
2380  111
2381  94
2382  103
2383  75
2384  89
2385  99
2386  93
2387  68
2388  81
2389  117
2390  91
2391  96
2392  96
2393  94
2394  90
2395  118
2396  100
2397  92
2398  78
2399  97
2400  86
2401  91
2402  106
2403  103
2404  94
2405  98
2406  94
2407  89
2408  95
2409  90
2410  89
2411  95
2412  85
2413  91
2414  93
2415  101
2416  80
2417  90
2418  117
2419  93
2420  93
2421  105
2422  91
2423  97
2424  89
2425  87
2426  110
2427  87
2428  100
2429  94
2430  118
2431  85
2432  98
2433  103
2434  109
2435  101
2436  91
2437  97
2438  79
2439  108
2440  70
2441  122
2442  103
2443  90
2444  104
2445  97
2446  78
2447  83
2448  91
2449  97
2450  77
2451  91
2452  89
2453  90
2454  93
2455  90
2456  84
2457  95
2458  96
2459  88
2460  103
2461  93
2462  107
2463  85
2464  85
2465  89
2466  87
2467  82
2468  91
2469  78
2470  78
2471  95
2472  86
2473  87
2474  89
2475  88
2476  95
2477  111
2478  100
2479  89
2480  90
2481  108
2482  84
2483  84
2484  101
2485  85
2486  85
2487  86
2488  107
2489  93
2490  82
2491  97
2492  90
2493  87
2494  86
2495  103
2496  76
2497  77
2498  104
2499  75
2500  76
2501  99
2502  88
2503  84
2504  75
2505  99
2506  84
2507  86
2508  86
2509  87
2510  87
2511  83
2512  91
2513  74
2514  97
2515  90
2516  73
2517  79
2518  92
2519  81
2520  75
2521  80
2522  94
2523  81
2524  88
2525  99
2526  83
2527  85
2528  77
2529  95
2530  73
2531  78
2532  91
2533  79
2534  81
2535  67
2536  82
2537  88
2538  86
2539  82
2540  83
2541  73
2542  89
2543  80
2544  80
2545  71
2546  75
2547  56
2548  75
2549  79
2550  58
2551  85
2552  62
2553  74
2554  83
2555  83
2556  88
2557  74
2558  84
2559  71
2560  73
2561  83
2562  84
2563  78
2564  73
2565  81
2566  82
2567  69
2568  99
2569  80
2570  87
2571  85
2572  81
2573  78
2574  97
2575  74
2576  60
2577  69
2578  68
2579  79
2580  69
2581  75
2582  47
2583  78
2584  72
2585  85
2586  71
2587  64
2588  81
2589  71
2590  90
2591  79
2592  81
2593  77
2594  75
2595  74
2596  81
2597  85
2598  82
2599  68
2600  78
2601  81
2602  81
2603  83
2604  78
2605  86
2606  70
2607  74
2608  93
2609  73
2610  77
2611  85
2612  68
2613  74
2614  59
2615  81
2616  86
2617  83
2618  64
2619  58
2620  67
2621  81
2622  67
2623  62
2624  62
2625  76
2626  70
2627  81
2628  63
2629  88
2630  80
2631  80
2632  66
2633  67
2634  82
2635  83
2636  80
2637  64
2638  68
2639  59
2640  55
2641  64
2642  68
2643  72
2644  81
2645  64
2646  79
2647  73
2648  61
2649  60
2650  49
2651  68
2652  62
2653  50
2654  79
2655  66
2656  66
2657  65
2658  64
2659  74
2660  56
2661  66
2662  64
2663  65
2664  59
2665  60
2666  81
2667  75
2668  55
2669  64
2670  67
2671  52
2672  76
2673  55
2674  73
2675  59
2676  74
2677  70
2678  61
2679  50
2680  63
2681  57
2682  59
2683  55
2684  63
2685  48
2686  57
2687  68
2688  57
2689  55
2690  51
2691  58
2692  54
2693  60
2694  41
2695  70
2696  68
2697  60
2698  59
2699  50
2700  43
2701  54
2702  61
2703  57
2704  52
2705  55
2706  59
2707  67
2708  58
2709  67
2710  65
2711  57
2712  53
2713  50
2714  54
2715  60
2716  60
2717  54
2718  44
2719  55
2720  62
2721  57
2722  60
2723  60
2724  53
2725  50
2726  39
2727  42
2728  53
2729  57
2730  53
2731  49
2732  44
2733  52
2734  45
2735  51
2736  47
2737  46
2738  44
2739  40
2740  52
2741  51
2742  44
2743  49
2744  62
2745  42
2746  47
2747  37
2748  54
2749  49
2750  40
2751  48
2752  45
2753  48
2754  57
2755  36
2756  47
2757  37
2758  50
2759  36
2760  45
2761  57
2762  48
2763  54
2764  41
2765  51
2766  59
2767  45
2768  42
2769  44
2770  42
2771  41
2772  39
2773  38
2774  33
2775  58
2776  38
2777  45
2778  43
2779  56
2780  50
2781  41
2782  45
2783  41
2784  46
2785  59
2786  31
2787  34
2788  37
2789  41
2790  36
2791  38
2792  33
2793  32
2794  34
2795  44
2796  40
2797  40
2798  42
2799  40
2800  44
2801  33
2802  37
2803  32
2804  43
2805  37
2806  33
2807  32
2808  25
2809  39
2810  44
2811  45
2812  35
2813  43
2814  37
2815  38
2816  42
2817  31
2818  44
2819  45
2820  32
2821  36
2822  31
2823  47
2824  36
2825  30
2826  42
2827  35
2828  38
2829  34
2830  32
2831  42
2832  37
2833  38
2834  33
2835  36
2836  39
2837  38
2838  27
2839  26
2840  41
2841  31
2842  33
2843  36
2844  32
2845  38
2846  38
2847  42
2848  48
2849  45
2850  43
2851  37
2852  38
2853  35
2854  46
2855  46
2856  30
2857  38
2858  29
2859  34
2860  39
2861  28
2862  33
2863  38
2864  44
2865  41
2866  29
2867  31
2868  28
2869  33
2870  37
2871  35
2872  35
2873  45
2874  40
2875  40
2876  33
2877  45
2878  33
2879  50
2880  41
2881  37
2882  24
2883  30
2884  39
2885  37
2886  37
2887  34
2888  35
2889  48
2890  29
2891  40
2892  39
2893  46
2894  46
2895  29
2896  47
2897  34
2898  36
2899  35
2900  41
2901  34
2902  45
2903  35
2904  33
2905  35
2906  33
2907  35
2908  35
2909  46
2910  35
2911  30
2912  41
2913  40
2914  51
2915  38
2916  45
2917  43
2918  41
2919  35
2920  34
2921  39
2922  35
2923  47
2924  34
2925  42
2926  39
2927  43
2928  40
2929  22
2930  31
2931  33
2932  42
2933  33
2934  42
2935  43
2936  33
2937  33
2938  32
2939  31
2940  40
2941  28
2942  35
2943  35
2944  32
2945  32
2946  35
2947  35
2948  38
2949  42
2950  35
2951  29
2952  37
2953  40
2954  35
2955  42
2956  29
2957  30
2958  38
2959  26
2960  29
2961  37
2962  40
2963  31
2964  38
2965  46
2966  27
2967  27
2968  35
2969  28
2970  34
2971  30
2972  34
2973  29
2974  31
2975  39
2976  34
2977  31
2978  33
2979  23
2980  30
2981  33
2982  32
2983  22
2984  27
2985  33
2986  32
2987  26
2988  18
2989  34
2990  21
2991  32
2992  24
2993  29
2994  22
2995  25
2996  37
2997  31
2998  26
2999  34
3000  31
3001  35
3002  31
3003  34
3004  24
3005  19
3006  32
3007  33
3008  22
3009  27
3010  35
3011  31
3012  31
3013  32
3014  26
3015  32
3016  30
3017  33
3018  30
3019  32
3020  29
3021  27
3022  25
3023  32
3024  32
3025  24
3026  15
3027  30
3028  24
3029  33
3030  35
3031  33
3032  35
3033  31
3034  23
3035  41
3036  27
3037  28
3038  34
3039  38
3040  21
3041  32
3042  35
3043  31
3044  29
3045  29
3046  22
3047  34
3048  31
3049  28
3050  30
3051  25
3052  28
3053  30
3054  31
3055  29
3056  32
3057  26
3058  31
3059  29
3060  30
3061  33
3062  35
3063  28
3064  36
3065  26
3066  32
3067  35
3068  31
3069  30
3070  35
3071  31
3072  36
3073  29
3074  28
3075  29
3076  29
3077  37
3078  32
3079  39
3080  24
3081  32
3082  38
3083  21
3084  32
3085  35
3086  31
3087  35
3088  31
3089  26
3090  32
3091  37
3092  32
3093  28
3094  37
3095  33
3096  52
3097  34
3098  38
3099  34
3100  27
3101  30
3102  27
3103  18
3104  31
3105  47
3106  38
3107  30
3108  37
3109  37
3110  37
3111  35
3112  40
3113  22
3114  35
3115  31
3116  33
3117  52
3118  31
3119  40
3120  28
3121  41
3122  18
3123  34
3124  35
3125  30
3126  35
3127  30
3128  35
3129  26
3130  45
3131  29
3132  38
3133  36
3134  36
3135  37
3136  33
3137  33
3138  29
3139  37
3140  37
3141  34
3142  33
3143  38
3144  36
3145  37
3146  46
3147  26
3148  39
3149  38
3150  31
3151  41
3152  48
3153  33
3154  32
3155  39
3156  48
3157  32
3158  35
3159  34
3160  30
3161  33
3162  32
3163  40
3164  35
3165  34
3166  22
3167  42
3168  41
3169  39
3170  29
3171  32
3172  28
3173  38
3174  27
3175  34
3176  34
3177  36
3178  33
3179  44
3180  38
3181  39
3182  43
3183  36
3184  44
3185  39
3186  31
3187  39
3188  37
3189  36
3190  39
3191  39
3192  35
3193  43
3194  37
3195  40
3196  27
3197  46
3198  48
3199  39
3200  32
3201  40
3202  35
3203  36
3204  43
3205  35
3206  35
3207  43
3208  41
3209  50
3210  31
3211  44
3212  34
3213  28
3214  43
3215  42
3216  36
3217  27
3218  38
3219  44
3220  37
3221  37
3222  42
3223  33
3224  42
3225  49
3226  34
3227  51
3228  41
3229  34
3230  41
3231  43
3232  32
3233  46
3234  40
3235  31
3236  42
3237  39
3238  35
3239  33
3240  43
3241  31
3242  28
3243  39
3244  44
3245  41
3246  50
3247  45
3248  38
3249  37
3250  31
3251  41
3252  33
3253  38
3254  52
3255  38
3256  42
3257  47
3258  40
3259  37
3260  50
3261  39
3262  42
3263  41
3264  41
3265  34
3266  26
3267  31
3268  45
3269  37
3270  33
3271  59
3272  46
3273  46
3274  54
3275  31
3276  38
3277  28
3278  53
3279  51
3280  44
3281  46
3282  34
3283  42
3284  36
3285  33
3286  43
3287  39
3288  34
3289  43
3290  47
3291  41
3292  46
3293  38
3294  36
3295  52
3296  46
3297  46
3298  39
3299  50
3300  49
3301  34
3302  47
3303  53
3304  48
3305  42
3306  31
3307  49
3308  37
3309  42
3310  41
3311  59
3312  42
3313  57
3314  46
3315  44
3316  54
3317  48
3318  31
3319  42
3320  49
3321  36
3322  46
3323  42
3324  57
3325  49
3326  44
3327  44
3328  36
3329  48
3330  44
3331  44
3332  41
3333  43
3334  46
3335  45
3336  54
3337  47
3338  43
3339  60
3340  64
3341  41
3342  50
3343  58
3344  35
3345  46
3346  48
3347  49
3348  37
3349  45
3350  49
3351  47
3352  41
3353  47
3354  45
3355  53
3356  38
3357  48
3358  53
3359  39
3360  43
3361  55
3362  55
3363  35
3364  54
3365  49
3366  49
3367  64
3368  51
3369  55
3370  46
3371  63
3372  55
3373  55
3374  53
3375  45
3376  44
3377  45
3378  44
3379  57
3380  42
3381  68
3382  59
3383  55
3384  66
3385  41
3386  52
3387  52
3388  57
3389  57
3390  61
3391  50
3392  52
3393  48
3394  47
3395  57
3396  62
3397  54
3398  47
3399  47
3400  65
3401  59
3402  61
3403  65
3404  60
3405  45
3406  58
3407  48
3408  69
3409  56
3410  65
3411  69
3412  61
3413  71
3414  54
3415  55
3416  57
3417  58
3418  64
3419  47
3420  47
3421  61
3422  59
3423  53
3424  58
3425  61
3426  69
3427  55
3428  64
3429  70
3430  71
3431  68
3432  48
3433  90
3434  77
3435  84
3436  98
3437  97
3438  92
3439  77
3440  87
3441  96
3442  104
3443  123
3444  115
3445  155
3446  156
3447  177
3448  180
3449  263
3450  281
3451  362
3452  386
3453  480
3454  549
3455  680
3456  776
3457  974
3458  1105
3459  1220
3460  1426
3461  1638
3462  1845
3463  2184
3464  2310
3465  2656
3466  2797
3467  2909
3468  3290
3469  3377
3470  3550
3471  3672
3472  3772
3473  3986
3474  3953
3475  3989
3476  3976
3477  3987
3478  3893
3479  3860
3480  3741
3481  3602
3482  3387
3483  3246
3484  3079
3485  2826
3486  2599
3487  2474
3488  2324
3489  2086
3490  2115
3491  1858
3492  1679
3493  1513
3494  1373
3495  1294
3496  1205
3497  1099
3498  1017
3499  918
3500  890
3501  832
3502  793
3503  761
3504  639
3505  586
3506  587
3507  528
3508  505
3509  496
3510  416
3511  357
3512  390
3513  332
3514  347
3515  291
3516  284
3517  264
3518  230
3519  231
3520  216
3521  188
3522  188
3523  179
3524  160
3525  151
3526  142
3527  144
3528  123
3529  139
3530  117
3531  115
3532  111
3533  112
3534  84
3535  83
3536  92
3537  92
3538  92
3539  85
3540  70
3541  68
3542  65
3543  64
3544  76
3545  63
3546  77
3547  60
3548  71
3549  58
3550  76
3551  76
3552  57
3553  60
3554  67
3555  74
3556  66
3557  57
3558  65
3559  75
3560  79
3561  79
3562  74
3563  71
3564  53
3565  60
3566  77
3567  69
3568  62
3569  54
3570  73
3571  62
3572  72
3573  59
3574  57
3575  65
3576  68
3577  65
3578  72
3579  63
3580  78
3581  65
3582  72
3583  76
3584  53
3585  61
3586  73
3587  70
3588  70
3589  68
3590  71
3591  74
3592  61
3593  53
3594  70
3595  57
3596  53
3597  72
3598  58
3599  71
3600  58
3601  63
3602  70
3603  58
3604  72
3605  65
3606  60
3607  57
3608  62
3609  79
3610  73
3611  53
3612  77
3613  73
3614  70
3615  61
3616  69
3617  73
3618  60
3619  63
3620  67
3621  77
3622  66
3623  59
3624  68
3625  64
3626  77
3627  70
3628  60
3629  82
3630  69
3631  66
3632  72
3633  80
3634  57
3635  73
3636  71
3637  70
3638  67
3639  63
3640  64
3641  76
3642  72
3643  70
3644  71
3645  64
3646  69
3647  78
3648  68
3649  71
3650  72
3651  74
3652  61
3653  62
3654  71
3655  73
3656  59
3657  70
3658  63
3659  65
3660  65
3661  73
3662  62
3663  64
3664  58
3665  71
3666  76
3667  62
3668  69
3669  66
3670  62
3671  70
3672  75
3673  81
3674  80
3675  64
3676  66
3677  72
3678  78
3679  78
3680  69
3681  55
3682  62
3683  59
3684  54
3685  42
3686  74
3687  64
3688  50
3689  50
3690  72
3691  81
3692  73
3693  58
3694  60
3695  56
3696  61
3697  79
3698  68
3699  63
3700  66
3701  73
3702  71
3703  74
3704  75
3705  73
3706  89
3707  71
3708  76
3709  67
3710  70
3711  74
3712  69
3713  56
3714  81
3715  80
3716  69
3717  84
3718  63
3719  73
3720  72
3721  71
3722  93
3723  67
3724  71
3725  64
3726  67
3727  67
3728  62
3729  75
3730  81
3731  71
3732  79
3733  83
3734  57
3735  83
3736  71
3737  59
3738  93
3739  75
3740  69
3741  67
3742  86
3743  75
3744  69
3745  71
3746  69
3747  75
3748  81
3749  67
3750  86
3751  92
3752  74
3753  78
3754  85
3755  93
3756  73
3757  88
3758  89
3759  69
3760  70
3761  95
3762  68
3763  85
3764  86
3765  86
3766  90
3767  81
3768  69
3769  75
3770  74
3771  75
3772  90
3773  73
3774  67
3775  56
3776  84
3777  84
3778  85
3779  77
3780  94
3781  77
3782  66
3783  84
3784  86
3785  78
3786  89
3787  78
3788  72
3789  90
3790  100
3791  84
3792  74
3793  80
3794  80
3795  75
3796  66
3797  70
3798  77
3799  78
3800  79
3801  95
3802  75
3803  80
3804  84
3805  75
3806  75
3807  84
3808  81
3809  89
3810  83
3811  85
3812  76
3813  89
3814  82
3815  90
3816  78
3817  90
3818  88
3819  90
3820  67
3821  75
3822  86
3823  81
3824  68
3825  93
3826  69
3827  72
3828  84
3829  78
3830  67
3831  81
3832  78
3833  103
3834  89
3835  80
3836  59
3837  76
3838  82
3839  82
3840  0
3841  0
3842  0
3843  0
3844  0
3845  0
3846  0
3847  0
3848  0
3849  0
3850  0
3851  0
3852  0
3853  0
3854  0
3855  0
3856  0
3857  0
3858  0
3859  0
3860  0
3861  0
3862  0
3863  0
3864  0
3865  0
3866  0
3867  0
3868  0
3869  0
3870  0
3871  0
3872  0
3873  0
3874  0
3875  0
3876  0
3877  0
3878  0
3879  0
3880  0
3881  0
3882  0
3883  0
3884  0
3885  0
3886  0
3887  0
3888  0
3889  0
3890  0
3891  0
3892  0
3893  0
3894  0
3895  0
3896  0
3897  0
3898  0
3899  0
3900  0
3901  0
3902  0
3903  0
3904  0
3905  0
3906  0
3907  0
3908  0
3909  0
3910  0
3911  0
3912  0
3913  0
3914  0
3915  0
3916  0
3917  0
3918  0
3919  0
3920  0
3921  0
3922  0
3923  0
3924  0
3925  0
3926  0
3927  0
3928  0
3929  0
3930  0
3931  0
3932  0
3933  0
3934  0
3935  0
3936  0
3937  0
3938  0
3939  0
3940  0
3941  0
3942  0
3943  0
3944  0
3945  0
3946  0
3947  0
3948  0
3949  0
3950  0
3951  0
3952  0
3953  0
3954  0
3955  0
3956  0
3957  0
3958  0
3959  0
3960  0
3961  0
3962  0
3963  0
3964  0
3965  0
3966  0
3967  0
3968  0
3969  0
3970  0
3971  0
3972  0
3973  0
3974  0
3975  0
3976  0
3977  0
3978  0
3979  0
3980  0
3981  0
3982  0
3983  0
3984  0
3985  0
3986  0
3987  0
3988  0
3989  0
3990  0
3991  0
3992  0
3993  0
3994  0
3995  0
3996  0
3997  0
3998  0
3999  0
4000  0
4001  0
4002  0
4003  0
4004  0
4005  0
4006  0
4007  0
4008  0
4009  0
4010  0
4011  0
4012  0
4013  0
4014  0
4015  0
4016  0
4017  0
4018  0
4019  0
4020  0
4021  0
4022  0
4023  0
4024  0
4025  0
4026  0
4027  0
4028  0
4029  0
4030  0
4031  0
4032  0
4033  0
4034  0
4035  0
4036  0
4037  0
4038  0
4039  0
4040  0
4041  0
4042  0
4043  0
4044  0
4045  0
4046  0
4047  0
4048  0
4049  0
4050  0
4051  0
4052  0
4053  0
4054  0
4055  0
4056  0
4057  0
4058  0
4059  0
4060  0
4061  0
4062  0
4063  0
4064  0
4065  0
4066  0
4067  0
4068  0
4069  0
4070  0
4071  0
4072  0
4073  0
4074  0
4075  0
4076  0
4077  0
4078  0
4079  0
4080  0
4081  0
4082  0
4083  0
4084  0
4085  0
4086  0
4087  0
4088  0
4089  0
4090  0
4091  0
4092  0
4093  0
4094  0
4095  0
