0  0
1  0
2  0
3  0
4  0
5  0
6  0
7  0
8  0
9  0
10  0
11  0
12  0
13  0
14  0
15  0
16  0
17  0
18  0
19  0
20  0
21  0
22  0
23  0
24  0
25  0
26  0
27  0
28  0
29  0
30  0
31  0
32  0
33  0
34  0
35  0
36  0
37  0
38  0
39  0
40  0
41  0
42  0
43  0
44  0
45  0
46  0
47  0
48  0
49  0
50  0
51  0
52  0
53  0
54  0
55  0
56  0
57  0
58  0
59  0
60  0
61  0
62  0
63  0
64  0
65  0
66  0
67  0
68  0
69  0
70  0
71  0
72  0
73  0
74  0
75  0
76  0
77  0
78  0
79  0
80  0
81  0
82  0
83  0
84  0
85  0
86  0
87  0
88  0
89  0
90  0
91  0
92  0
93  0
94  0
95  0
96  0
97  0
98  0
99  0
100  0
101  0
102  0
103  0
104  0
105  0
106  0
107  0
108  0
109  0
110  0
111  0
112  0
113  0
114  0
115  0
116  0
117  0
118  0
119  0
120  0
121  0
122  0
123  0
124  0
125  0
126  0
127  0
128  0
129  0
130  0
131  0
132  0
133  0
134  0
135  0
136  0
137  0
138  0
139  0
140  0
141  0
142  0
143  0
144  0
145  0
146  0
147  0
148  0
149  0
150  0
151  0
152  0
153  0
154  0
155  0
156  0
157  0
158  0
159  0
160  0
161  0
162  0
163  0
164  0
165  0
166  0
167  0
168  0
169  0
170  0
171  0
172  0
173  0
174  0
175  0
176  0
177  0
178  0
179  0
180  0
181  0
182  0
183  0
184  0
185  0
186  0
187  0
188  0
189  0
190  0
191  0
192  0
193  0
194  0
195  0
196  0
197  0
198  0
199  0
200  0
201  0
202  0
203  0
204  0
205  0
206  0
207  0
208  0
209  0
210  0
211  0
212  0
213  0
214  0
215  0
216  0
217  0
218  0
219  0
220  0
221  0
222  0
223  0
224  0
225  0
226  0
227  0
228  0
229  0
230  0
231  0
232  0
233  0
234  0
235  0
236  0
237  0
238  0
239  0
240  0
241  0
242  0
243  0
244  0
245  0
246  0
247  0
248  0
249  0
250  0
251  0
252  0
253  0
254  0
255  0
256  0
257  0
258  0
259  0
260  0
261  0
262  0
263  0
264  0
265  0
266  0
267  0
268  0
269  0
270  0
271  0
272  0
273  0
274  0
275  0
276  0
277  0
278  0
279  0
280  0
281  0
282  0
283  0
284  0
285  0
286  0
287  0
288  0
289  0
290  0
291  0
292  0
293  0
294  0
295  0
296  0
297  0
298  0
299  0
300  0
301  0
302  0
303  0
304  0
305  0
306  0
307  0
308  0
309  0
310  0
311  0
312  0
313  0
314  0
315  0
316  0
317  0
318  0
319  0
320  0
321  0
322  0
323  0
324  0
325  0
326  0
327  0
328  0
329  0
330  0
331  0
332  0
333  0
334  0
335  0
336  0
337  0
338  0
339  0
340  0
341  0
342  0
343  0
344  0
345  0
346  0
347  0
348  0
349  0
350  0
351  0
352  0
353  0
354  0
355  0
356  0
357  0
358  0
359  0
360  0
361  0
362  0
363  0
364  0
365  0
366  0
367  0
368  0
369  0
370  0
371  0
372  0
373  0
374  0
375  0
376  0
377  0
378  0
379  0
380  0
381  0
382  0
383  0
384  0
385  0
386  0
387  0
388  0
389  0
390  0
391  0
392  0
393  0
394  0
395  0
396  0
397  0
398  0
399  0
400  0
401  0
402  0
403  0
404  0
405  0
406  0
407  0
408  0
409  0
410  0
411  0
412  0
413  0
414  0
415  0
416  0
417  0
418  0
419  0
420  0
421  0
422  0
423  0
424  0
425  0
426  0
427  0
428  0
429  0
430  0
431  0
432  0
433  0
434  0
435  0
436  0
437  0
438  0
439  0
440  0
441  0
442  0
443  0
444  0
445  0
446  0
447  0
448  0
449  0
450  0
451  0
452  0
453  0
454  0
455  0
456  0
457  0
458  0
459  0
460  0
461  0
462  0
463  0
464  0
465  0
466  0
467  0
468  0
469  0
470  0
471  0
472  0
473  0
474  0
475  0
476  0
477  0
478  0
479  0
480  0
481  0
482  0
483  0
484  0
485  0
486  0
487  0
488  0
489  0
490  0
491  0
492  0
493  0
494  0
495  0
496  0
497  0
498  0
499  0
500  0
501  0
502  0
503  0
504  0
505  0
506  0
507  0
508  0
509  0
510  0
511  0
512  0
513  0
514  0
515  0
516  0
517  0
518  0
519  0
520  0
521  0
522  0
523  0
524  0
525  0
526  0
527  0
528  0
529  0
530  0
531  0
532  0
533  0
534  0
535  0
536  0
537  0
538  0
539  0
540  0
541  0
542  0
543  0
544  0
545  0
546  0
547  0
548  0
549  0
550  0
551  0
552  0
553  0
554  0
555  0
556  0
557  0
558  0
559  0
560  0
561  0
562  0
563  0
564  0
565  0
566  0
567  0
568  0
569  0
570  0
571  0
572  0
573  0
574  0
575  0
576  0
577  0
578  0
579  0
580  0
581  0
582  0
583  0
584  0
585  0
586  0
587  0
588  0
589  0
590  0
591  0
592  0
593  0
594  0
595  0
596  0
597  0
598  0
599  0
600  0
601  0
602  0
603  0
604  0
605  0
606  0
607  0
608  0
609  0
610  0
611  0
612  0
613  0
614  0
615  0
616  0
617  0
618  0
619  0
620  0
621  0
622  0
623  0
624  0
625  0
626  0
627  0
628  0
629  0
630  0
631  0
632  0
633  0
634  0
635  0
636  0
637  0
638  0
639  0
640  0
641  0
642  0
643  0
644  0
645  0
646  0
647  0
648  0
649  0
650  0
651  0
652  0
653  0
654  0
655  0
656  0
657  0
658  0
659  0
660  0
661  0
662  0
663  0
664  0
665  0
666  0
667  0
668  0
669  0
670  0
671  0
672  0
673  0
674  0
675  0
676  0
677  0
678  0
679  0
680  0
681  0
682  0
683  0
684  0
685  0
686  0
687  0
688  0
689  0
690  0
691  0
692  0
693  0
694  0
695  0
696  0
697  0
698  0
699  0
700  0
701  0
702  0
703  0
704  0
705  0
706  0
707  0
708  0
709  0
710  0
711  0
712  0
713  0
714  0
715  0
716  0
717  0
718  0
719  0
720  0
721  0
722  0
723  0
724  0
725  0
726  0
727  0
728  0
729  0
730  0
731  0
732  0
733  0
734  0
735  0
736  0
737  0
738  0
739  0
740  0
741  0
742  0
743  0
744  0
745  0
746  0
747  0
748  0
749  0
750  0
751  0
752  0
753  0
754  0
755  0
756  0
757  0
758  0
759  0
760  0
761  0
762  0
763  0
764  0
765  0
766  0
767  0
768  0
769  0
770  0
771  0
772  0
773  0
774  0
775  0
776  0
777  0
778  0
779  0
780  0
781  0
782  0
783  0
784  0
785  0
786  0
787  0
788  0
789  0
790  0
791  0
792  0
793  0
794  0
795  0
796  0
797  0
798  0
799  0
800  0
801  0
802  0
803  0
804  0
805  0
806  0
807  0
808  0
809  0
810  0
811  0
812  0
813  0
814  0
815  0
816  0
817  0
818  0
819  0
820  0
821  0
822  0
823  0
824  0
825  0
826  0
827  0
828  0
829  0
830  0
831  0
832  0
833  0
834  0
835  0
836  0
837  0
838  0
839  0
840  0
841  0
842  0
843  0
844  0
845  0
846  0
847  0
848  0
849  0
850  0
851  0
852  0
853  0
854  0
855  0
856  0
857  0
858  0
859  0
860  0
861  0
862  0
863  0
864  0
865  0
866  0
867  0
868  0
869  0
870  0
871  0
872  0
873  0
874  0
875  0
876  0
877  0
878  0
879  0
880  0
881  0
882  0
883  0
884  0
885  0
886  0
887  0
888  0
889  0
890  0
891  0
892  0
893  0
894  0
895  0
896  0
897  0
898  0
899  0
900  0
901  0
902  0
903  0
904  0
905  0
906  0
907  0
908  0
909  0
910  0
911  0
912  0
913  0
914  0
915  0
916  0
917  0
918  0
919  0
920  0
921  0
922  0
923  0
924  0
925  0
926  0
927  0
928  0
929  0
930  0
931  0
932  0
933  0
934  0
935  0
936  0
937  0
938  0
939  0
940  0
941  0
942  0
943  0
944  0
945  0
946  0
947  0
948  0
949  0
950  0
951  0
952  0
953  0
954  0
955  0
956  0
957  0
958  0
959  0
960  0
961  0
962  0
963  0
964  0
965  0
966  0
967  0
968  0
969  0
970  0
971  0
972  0
973  0
974  0
975  0
976  0
977  0
978  0
979  0
980  0
981  0
982  0
983  0
984  0
985  0
986  0
987  0
988  0
989  0
990  0
991  0
992  0
993  0
994  0
995  0
996  0
997  0
998  0
999  0
1000  0
1001  0
1002  0
1003  0
1004  0
1005  0
1006  0
1007  0
1008  0
1009  0
1010  0
1011  0
1012  0
1013  0
1014  0
1015  0
1016  0
1017  0
1018  0
1019  0
1020  0
1021  0
1022  0
1023  0
1024  0
1025  0
1026  0
1027  0
1028  0
1029  0
1030  0
1031  0
1032  0
1033  0
1034  0
1035  0
1036  0
1037  0
1038  0
1039  0
1040  0
1041  0
1042  0
1043  0
1044  0
1045  0
1046  0
1047  0
1048  0
1049  0
1050  0
1051  0
1052  0
1053  0
1054  0
1055  0
1056  0
1057  0
1058  0
1059  0
1060  0
1061  0
1062  0
1063  0
1064  0
1065  0
1066  0
1067  0
1068  0
1069  0
1070  0
1071  0
1072  0
1073  0
1074  0
1075  0
1076  0
1077  0
1078  0
1079  0
1080  0
1081  0
1082  0
1083  0
1084  0
1085  0
1086  0
1087  0
1088  0
1089  0
1090  0
1091  0
1092  0
1093  0
1094  0
1095  0
1096  0
1097  0
1098  0
1099  0
1100  0
1101  0
1102  0
1103  0
1104  0
1105  0
1106  0
1107  0
1108  0
1109  0
1110  0
1111  0
1112  0
1113  0
1114  0
1115  0
1116  0
1117  0
1118  0
1119  0
1120  0
1121  0
1122  0
1123  0
1124  0
1125  0
1126  0
1127  0
1128  0
1129  0
1130  0
1131  0
1132  0
1133  0
1134  0
1135  0
1136  0
1137  0
1138  0
1139  0
1140  0
1141  0
1142  0
1143  0
1144  0
1145  0
1146  0
1147  0
1148  0
1149  0
1150  0
1151  0
1152  0
1153  0
1154  0
1155  0
1156  0
1157  0
1158  0
1159  0
1160  0
1161  0
1162  0
1163  0
1164  0
1165  0
1166  0
1167  0
1168  0
1169  0
1170  0
1171  0
1172  0
1173  0
1174  0
1175  0
1176  0
1177  0
1178  0
1179  0
1180  0
1181  0
1182  0
1183  0
1184  0
1185  0
1186  0
1187  0
1188  0
1189  0
1190  0
1191  0
1192  0
1193  0
1194  0
1195  0
1196  0
1197  0
1198  0
1199  0
1200  0
1201  0
1202  0
1203  0
1204  0
1205  0
1206  0
1207  0
1208  0
1209  0
1210  0
1211  0
1212  0
1213  0
1214  0
1215  0
1216  0
1217  0
1218  0
1219  0
1220  0
1221  0
1222  0
1223  0
1224  0
1225  0
1226  0
1227  0
1228  0
1229  0
1230  0
1231  0
1232  0
1233  0
1234  0
1235  0
1236  0
1237  0
1238  0
1239  0
1240  0
1241  0
1242  0
1243  0
1244  0
1245  0
1246  0
1247  0
1248  0
1249  0
1250  0
1251  0
1252  0
1253  0
1254  0
1255  0
1256  0
1257  0
1258  0
1259  0
1260  0
1261  0
1262  0
1263  0
1264  0
1265  0
1266  0
1267  0
1268  0
1269  0
1270  0
1271  0
1272  0
1273  0
1274  0
1275  0
1276  0
1277  0
1278  0
1279  0
1280  0
1281  0
1282  0
1283  0
1284  0
1285  0
1286  0
1287  0
1288  0
1289  0
1290  0
1291  0
1292  0
1293  0
1294  0
1295  0
1296  0
1297  0
1298  0
1299  0
1300  0
1301  0
1302  0
1303  0
1304  0
1305  0
1306  0
1307  0
1308  0
1309  0
1310  0
1311  0
1312  0
1313  0
1314  0
1315  0
1316  0
1317  0
1318  0
1319  0
1320  0
1321  0
1322  0
1323  0
1324  0
1325  0
1326  0
1327  0
1328  0
1329  0
1330  0
1331  0
1332  0
1333  0
1334  0
1335  0
1336  0
1337  0
1338  0
1339  0
1340  0
1341  0
1342  0
1343  0
1344  0
1345  0
1346  0
1347  0
1348  0
1349  0
1350  0
1351  0
1352  0
1353  0
1354  0
1355  0
1356  0
1357  0
1358  0
1359  0
1360  0
1361  0
1362  0
1363  0
1364  0
1365  0
1366  0
1367  0
1368  0
1369  0
1370  0
1371  0
1372  0
1373  0
1374  0
1375  0
1376  0
1377  0
1378  0
1379  0
1380  0
1381  0
1382  0
1383  0
1384  0
1385  0
1386  0
1387  0
1388  0
1389  0
1390  0
1391  0
1392  0
1393  0
1394  0
1395  0
1396  0
1397  0
1398  0
1399  0
1400  0
1401  0
1402  0
1403  0
1404  0
1405  0
1406  0
1407  0
1408  0
1409  0
1410  0
1411  0
1412  0
1413  0
1414  0
1415  0
1416  0
1417  0
1418  0
1419  0
1420  0
1421  0
1422  0
1423  0
1424  0
1425  0
1426  0
1427  0
1428  0
1429  0
1430  0
1431  0
1432  0
1433  0
1434  0
1435  0
1436  0
1437  0
1438  0
1439  0
1440  0
1441  0
1442  0
1443  0
1444  0
1445  0
1446  0
1447  0
1448  0
1449  0
1450  0
1451  0
1452  0
1453  0
1454  0
1455  0
1456  0
1457  0
1458  0
1459  0
1460  0
1461  0
1462  0
1463  0
1464  0
1465  0
1466  0
1467  0
1468  0
1469  0
1470  0
1471  0
1472  0
1473  0
1474  0
1475  0
1476  0
1477  0
1478  0
1479  0
1480  0
1481  0
1482  0
1483  0
1484  0
1485  0
1486  0
1487  0
1488  0
1489  0
1490  0
1491  0
1492  0
1493  0
1494  0
1495  0
1496  0
1497  0
1498  0
1499  0
1500  0
1501  0
1502  0
1503  0
1504  0
1505  0
1506  0
1507  0
1508  0
1509  0
1510  0
1511  0
1512  0
1513  0
1514  0
1515  0
1516  0
1517  0
1518  0
1519  0
1520  0
1521  1
1522  0
1523  0
1524  0
1525  0
1526  0
1527  0
1528  0
1529  0
1530  0
1531  0
1532  0
1533  0
1534  0
1535  0
1536  0
1537  0
1538  0
1539  0
1540  0
1541  0
1542  0
1543  0
1544  0
1545  0
1546  0
1547  0
1548  0
1549  0
1550  0
1551  0
1552  0
1553  0
1554  0
1555  0
1556  0
1557  0
1558  0
1559  0
1560  0
1561  0
1562  0
1563  0
1564  0
1565  0
1566  0
1567  0
1568  0
1569  0
1570  0
1571  0
1572  0
1573  0
1574  0
1575  0
1576  0
1577  0
1578  0
1579  0
1580  0
1581  0
1582  0
1583  0
1584  0
1585  0
1586  0
1587  0
1588  0
1589  0
1590  0
1591  0
1592  0
1593  0
1594  0
1595  0
1596  1
1597  9
1598  30
1599  111
1600  378
1601  1318
1602  4125
1603  10289
1604  18407
1605  24882
1606  28217
1607  30144
1608  30135
1609  30066
1610  30380
1611  29978
1612  29836
1613  29915
1614  29681
1615  29473
1616  29369
1617  28885
1618  28709
1619  27921
1620  27143
1621  27001
1622  26687
1623  26078
1624  25996
1625  25428
1626  24758
1627  24354
1628  23523
1629  22982
1630  22579
1631  21922
1632  21209
1633  20723
1634  20047
1635  19463
1636  18550
1637  18187
1638  17779
1639  16881
1640  16456
1641  15871
1642  15181
1643  14800
1644  14262
1645  13473
1646  13099
1647  12440
1648  11895
1649  11598
1650  11194
1651  10760
1652  10424
1653  9797
1654  9507
1655  9150
1656  8847
1657  8355
1658  8052
1659  7516
1660  7420
1661  7143
1662  6873
1663  6490
1664  6329
1665  5925
1666  5837
1667  5529
1668  5345
1669  5070
1670  4933
1671  4724
1672  4473
1673  4237
1674  4154
1675  4098
1676  3892
1677  3688
1678  3685
1679  3253
1680  3248
1681  3145
1682  3072
1683  2903
1684  2855
1685  2800
1686  2583
1687  2574
1688  2498
1689  2357
1690  2256
1691  2228
1692  2045
1693  2105
1694  2100
1695  1990
1696  1861
1697  1886
1698  1830
1699  1749
1700  1751
1701  1701
1702  1562
1703  1547
1704  1497
1705  1458
1706  1439
1707  1428
1708  1352
1709  1348
1710  1307
1711  1263
1712  1254
1713  1178
1714  1153
1715  1097
1716  1110
1717  975
1718  1019
1719  1105
1720  999
1721  1035
1722  985
1723  977
1724  941
1725  938
1726  869
1727  867
1728  807
1729  800
1730  816
1731  867
1732  785
1733  760
1734  738
1735  725
1736  740
1737  655
1738  711
1739  685
1740  683
1741  675
1742  663
1743  665
1744  632
1745  626
1746  626
1747  610
1748  597
1749  571
1750  633
1751  587
1752  609
1753  609
1754  627
1755  565
1756  571
1757  560
1758  558
1759  577
1760  546
1761  566
1762  540
1763  484
1764  538
1765  499
1766  530
1767  526
1768  506
1769  526
1770  514
1771  503
1772  522
1773  521
1774  523
1775  549
1776  468
1777  470
1778  514
1779  530
1780  537
1781  537
1782  498
1783  555
1784  501
1785  553
1786  487
1787  503
1788  495
1789  514
1790  482
1791  536
1792  540
1793  533
1794  546
1795  514
1796  518
1797  616
1798  571
1799  576
1800  542
1801  527
1802  558
1803  550
1804  578
1805  579
1806  565
1807  574
1808  597
1809  657
1810  589
1811  590
1812  623
1813  616
1814  637
1815  649
1816  621
1817  669
1818  610
1819  675
1820  694
1821  674
1822  709
1823  737
1824  730
1825  728
1826  753
1827  706
1828  764
1829  769
1830  790
1831  817
1832  801
1833  794
1834  829
1835  798
1836  823
1837  852
1838  858
1839  859
1840  857
1841  940
1842  911
1843  919
1844  958
1845  992
1846  952
1847  948
1848  1064
1849  1016
1850  994
1851  1033
1852  1067
1853  1083
1854  1073
1855  1052
1856  1093
1857  1091
1858  1065
1859  1130
1860  1105
1861  1163
1862  1196
1863  1214
1864  1194
1865  1186
1866  1253
1867  1250
1868  1361
1869  1245
1870  1298
1871  1283
1872  1410
1873  1279
1874  1378
1875  1352
1876  1370
1877  1461
1878  1473
1879  1456
1880  1459
1881  1529
1882  1494
1883  1448
1884  1421
1885  1546
1886  1463
1887  1573
1888  1552
1889  1598
1890  1645
1891  1552
1892  1560
1893  1659
1894  1606
1895  1635
1896  1655
1897  1736
1898  1711
1899  1683
1900  1759
1901  1739
1902  1790
1903  1716
1904  1897
1905  1793
1906  1798
1907  1787
1908  1782
1909  1801
1910  1765
1911  1797
1912  1854
1913  1944
1914  1870
1915  1858
1916  1864
1917  1921
1918  1869
1919  1978
1920  2028
1921  1942
1922  1964
1923  1973
1924  2067
1925  1983
1926  1905
1927  1976
1928  2034
1929  1976
1930  2031
1931  1989
1932  2002
1933  2097
1934  2067
1935  2133
1936  2086
1937  2043
1938  2046
1939  2119
1940  2152
1941  2123
1942  2159
1943  2134
1944  2181
1945  2099
1946  2137
1947  2097
1948  2215
1949  2249
1950  2172
1951  2136
1952  2148
1953  2222
1954  2184
1955  2196
1956  2212
1957  2219
1958  2206
1959  2211
1960  2287
1961  2179
1962  2264
1963  2180
1964  2262
1965  2192
1966  2124
1967  2124
1968  2233
1969  2159
1970  2149
1971  2180
1972  2197
1973  2192
1974  2177
1975  2188
1976  2239
1977  2087
1978  2149
1979  2181
1980  2111
1981  2265
1982  2169
1983  2209
1984  2215
1985  2260
1986  2201
1987  2216
1988  2176
1989  2232
1990  2115
1991  2181
1992  2226
1993  2125
1994  2127
1995  2214
1996  2176
1997  2172
1998  2153
1999  2143
2000  2135
2001  2185
2002  2172
2003  2082
2004  2068
2005  2168
2006  2095
2007  2094
2008  2098
2009  2100
2010  2060
2011  2091
2012  2047
2013  2024
2014  2132
2015  2042
2016  1968
2017  2070
2018  2022
2019  1973
2020  2060
2021  1939
2022  1979
2023  1966
2024  1999
2025  1990
2026  1981
2027  2009
2028  1999
2029  1984
2030  1935
2031  1946
2032  2012
2033  1910
2034  1916
2035  1847
2036  1963
2037  1835
2038  1937
2039  1826
2040  1909
2041  1898
2042  1896
2043  1885
2044  1922
2045  1817
2046  1791
2047  1823
2048  1787
2049  1886
2050  1801
2051  1795
2052  1792
2053  1801
2054  1772
2055  1755
2056  1814
2057  1753
2058  1779
2059  1845
2060  1670
2061  1724
2062  1736
2063  1735
2064  1728
2065  1738
2066  1778
2067  1706
2068  1678
2069  1631
2070  1691
2071  1691
2072  1618
2073  1661
2074  1616
2075  1636
2076  1714
2077  1743
2078  1623
2079  1671
2080  1667
2081  1550
2082  1588
2083  1564
2084  1552
2085  1549
2086  1526
2087  1550
2088  1541
2089  1579
2090  1483
2091  1488
2092  1513
2093  1477
2094  1476
2095  1467
2096  1432
2097  1407
2098  1450
2099  1458
2100  1425
2101  1438
2102  1442
2103  1385
2104  1421
2105  1404
2106  1449
2107  1323
2108  1402
2109  1329
2110  1429
2111  1354
2112  1341
2113  1356
2114  1367
2115  1292
2116  1320
2117  1360
2118  1291
2119  1306
2120  1277
2121  1302
2122  1298
2123  1297
2124  1326
2125  1290
2126  1299
2127  1256
2128  1221
2129  1249
2130  1117
2131  1216
2132  1227
2133  1204
2134  1158
2135  1147
2136  1213
2137  1160
2138  1187
2139  1170
2140  1105
2141  1134
2142  1183
2143  1132
2144  1142
2145  1090
2146  1121
2147  1102
2148  1124
2149  1067
2150  1116
2151  1092
2152  1016
2153  1025
2154  1110
2155  1073
2156  1065
2157  1061
2158  1054
2159  1110
2160  1094
2161  1036
2162  1062
2163  992
2164  1060
2165  1037
2166  1001
2167  991
2168  1030
2169  955
2170  950
2171  991
2172  970
2173  973
2174  997
2175  964
2176  962
2177  998
2178  929
2179  971
2180  932
2181  916
2182  903
2183  941
2184  945
2185  905
2186  926
2187  889
2188  888
2189  936
2190  889
2191  906
2192  827
2193  834
2194  820
2195  795
2196  941
2197  874
2198  847
2199  824
2200  815
2201  882
2202  835
2203  751
2204  777
2205  819
2206  785
2207  744
2208  737
2209  816
2210  782
2211  778
2212  732
2213  770
2214  734
2215  745
2216  756
2217  738
2218  684
2219  725
2220  699
2221  713
2222  711
2223  703
2224  700
2225  739
2226  691
2227  713
2228  686
2229  673
2230  686
2231  672
2232  664
2233  641
2234  688
2235  623
2236  664
2237  618
2238  639
2239  626
2240  666
2241  615
2242  621
2243  610
2244  634
2245  605
2246  597
2247  624
2248  613
2249  590
2250  616
2251  601
2252  602
2253  594
2254  611
2255  556
2256  558
2257  584
2258  603
2259  589
2260  529
2261  555
2262  593
2263  573
2264  544
2265  559
2266  561
2267  542
2268  502
2269  563
2270  528
2271  494
2272  529
2273  500
2274  520
2275  490
2276  529
2277  530
2278  511
2279  514
2280  493
2281  512
2282  484
2283  489
2284  473
2285  440
2286  477
2287  486
2288  483
2289  493
2290  493
2291  458
2292  454
2293  463
2294  477
2295  484
2296  470
2297  448
2298  462
2299  449
2300  478
2301  471
2302  436
2303  430
2304  434
2305  463
2306  435
2307  449
2308  415
2309  455
2310  406
2311  438
2312  384
2313  428
2314  370
2315  416
2316  376
2317  432
2318  384
2319  432
2320  387
2321  393
2322  371
2323  391
2324  366
2325  408
2326  359
2327  363
2328  366
2329  370
2330  403
2331  387
2332  362
2333  363
2334  362
2335  379
2336  376
2337  356
2338  388
2339  377
2340  359
2341  364
2342  381
2343  322
2344  350
2345  318
2346  304
2347  350
2348  370
2349  338
2350  359
2351  331
2352  352
2353  346
2354  336
2355  308
2356  345
2357  320
2358  329
2359  320
2360  284
2361  356
2362  299
2363  325
2364  306
2365  276
2366  311
2367  300
2368  293
2369  278
2370  292
2371  308
2372  333
2373  307
2374  276
2375  311
2376  294
2377  289
2378  289
2379  291
2380  294
2381  285
2382  304
2383  266
2384  293
2385  258
2386  263
2387  261
2388  280
2389  261
2390  246
2391  268
2392  243
2393  287
2394  263
2395  253
2396  233
2397  251
2398  288
2399  258
2400  250
2401  268
2402  279
2403  271
2404  265
2405  252
2406  259
2407  278
2408  258
2409  254
2410  236
2411  247
2412  273
2413  256
2414  235
2415  244
2416  239
2417  245
2418  238
2419  226
2420  235
2421  236
2422  224
2423  217
2424  229
2425  216
2426  242
2427  237
2428  234
2429  219
2430  219
2431  223
2432  229
2433  229
2434  202
2435  227
2436  228
2437  228
2438  201
2439  212
2440  222
2441  222
2442  199
2443  217
2444  187
2445  193
2446  196
2447  210
2448  200
2449  210
2450  184
2451  200
2452  192
2453  215
2454  179
2455  221
2456  204
2457  187
2458  206
2459  203
2460  181
2461  167
2462  182
2463  210
2464  214
2465  168
2466  208
2467  168
2468  187
2469  186
2470  162
2471  179
2472  190
2473  208
2474  206
2475  186
2476  172
2477  172
2478  197
2479  204
2480  185
2481  174
2482  173
2483  170
2484  165
2485  180
2486  201
2487  168
2488  165
2489  160
2490  162
2491  153
2492  167
2493  157
2494  168
2495  161
2496  166
2497  155
2498  152
2499  189
2500  159
2501  134
2502  137
2503  148
2504  157
2505  159
2506  142
2507  152
2508  156
2509  143
2510  155
2511  141
2512  145
2513  143
2514  143
2515  153
2516  128
2517  147
2518  146
2519  142
2520  130
2521  142
2522  150
2523  118
2524  148
2525  146
2526  148
2527  138
2528  138
2529  137
2530  134
2531  128
2532  119
2533  146
2534  151
2535  139
2536  127
2537  124
2538  117
2539  138
2540  132
2541  117
2542  120
2543  123
2544  121
2545  123
2546  95
2547  135
2548  96
2549  121
2550  121
2551  110
2552  115
2553  97
2554  112
2555  115
2556  116
2557  119
2558  101
2559  128
2560  91
2561  112
2562  111
2563  106
2564  109
2565  107
2566  105
2567  117
2568  97
2569  130
2570  110
2571  95
2572  103
2573  99
2574  95
2575  111
2576  92
2577  112
2578  93
2579  107
2580  99
2581  85
2582  88
2583  107
2584  70
2585  108
2586  84
2587  104
2588  79
2589  76
2590  87
2591  90
2592  85
2593  90
2594  91
2595  80
2596  101
2597  90
2598  105
2599  91
2600  114
2601  82
2602  88
2603  87
2604  94
2605  86
2606  81
2607  100
2608  85
2609  83
2610  86
2611  84
2612  62
2613  93
2614  87
2615  84
2616  73
2617  81
2618  74
2619  85
2620  86
2621  98
2622  98
2623  84
2624  87
2625  83
2626  86
2627  79
2628  80
2629  77
2630  81
2631  80
2632  67
2633  89
2634  73
2635  84
2636  69
2637  81
2638  74
2639  65
2640  74
2641  80
2642  76
2643  81
2644  83
2645  64
2646  86
2647  67
2648  85
2649  79
2650  59
2651  90
2652  63
2653  77
2654  52
2655  85
2656  70
2657  71
2658  64
2659  87
2660  72
2661  62
2662  87
2663  71
2664  72
2665  79
2666  71
2667  68
2668  60
2669  74
2670  71
2671  73
2672  62
2673  73
2674  63
2675  65
2676  67
2677  79
2678  69
2679  61
2680  66
2681  80
2682  60
2683  76
2684  58
2685  69
2686  59
2687  56
2688  67
2689  53
2690  59
2691  64
2692  64
2693  63
2694  52
2695  69
2696  66
2697  83
2698  54
2699  57
2700  69
2701  52
2702  57
2703  63
2704  65
2705  68
2706  63
2707  58
2708  58
2709  65
2710  68
2711  53
2712  54
2713  62
2714  51
2715  51
2716  55
2717  69
2718  60
2719  53
2720  68
2721  56
2722  43
2723  57
2724  59
2725  45
2726  53
2727  47
2728  49
2729  50
2730  60
2731  46
2732  48
2733  57
2734  46
2735  52
2736  51
2737  60
2738  58
2739  44
2740  56
2741  64
2742  45
2743  49
2744  54
2745  64
2746  46
2747  55
2748  55
2749  58
2750  44
2751  61
2752  37
2753  60
2754  46
2755  60
2756  42
2757  55
2758  50
2759  48
2760  42
2761  48
2762  50
2763  63
2764  43
2765  51
2766  43
2767  53
2768  44
2769  54
2770  39
2771  44
2772  60
2773  57
2774  50
2775  48
2776  50
2777  40
2778  61
2779  44
2780  48
2781  33
2782  57
2783  54
2784  53
2785  41
2786  52
2787  48
2788  38
2789  40
2790  38
2791  39
2792  56
2793  41
2794  51
2795  43
2796  35
2797  44
2798  44
2799  58
2800  48
2801  42
2802  46
2803  48
2804  47
2805  41
2806  32
2807  37
2808  34
2809  48
2810  44
2811  52
2812  49
2813  37
2814  53
2815  54
2816  44
2817  44
2818  34
2819  42
2820  43
2821  57
2822  48
2823  40
2824  40
2825  34
2826  41
2827  36
2828  47
2829  35
2830  46
2831  49
2832  41
2833  42
2834  46
2835  54
2836  40
2837  33
2838  44
2839  46
2840  37
2841  45
2842  34
2843  44
2844  44
2845  23
2846  34
2847  37
2848  49
2849  40
2850  49
2851  43
2852  41
2853  36
2854  42
2855  36
2856  37
2857  23
2858  37
2859  38
2860  35
2861  35
2862  30
2863  27
2864  23
2865  27
2866  46
2867  35
2868  45
2869  41
2870  39
2871  37
2872  24
2873  50
2874  31
2875  27
2876  44
2877  41
2878  38
2879  28
2880  32
2881  34
2882  40
2883  37
2884  34
2885  38
2886  38
2887  27
2888  39
2889  35
2890  23
2891  38
2892  31
2893  32
2894  23
2895  23
2896  33
2897  33
2898  40
2899  41
2900  42
2901  27
2902  29
2903  37
2904  25
2905  32
2906  32
2907  28
2908  27
2909  31
2910  31
2911  35
2912  26
2913  29
2914  39
2915  34
2916  26
2917  32
2918  23
2919  39
2920  28
2921  25
2922  31
2923  40
2924  42
2925  26
2926  31
2927  30
2928  26
2929  27
2930  28
2931  35
2932  34
2933  25
2934  39
2935  27
2936  30
2937  29
2938  29
2939  29
2940  31
2941  29
2942  34
2943  25
2944  32
2945  23
2946  30
2947  25
2948  25
2949  32
2950  34
2951  26
2952  30
2953  21
2954  31
2955  25
2956  18
2957  35
2958  19
2959  30
2960  34
2961  32
2962  27
2963  25
2964  18
2965  29
2966  33
2967  32
2968  22
2969  28
2970  25
2971  25
2972  33
2973  29
2974  26
2975  25
2976  30
2977  29
2978  33
2979  26
2980  29
2981  20
2982  32
2983  25
2984  34
2985  23
2986  29
2987  28
2988  14
2989  28
2990  21
2991  27
2992  33
2993  23
2994  25
2995  35
2996  30
2997  24
2998  26
2999  18
3000  23
3001  34
3002  36
3003  23
3004  32
3005  26
3006  34
3007  21
3008  22
3009  27
3010  24
3011  32
3012  21
3013  27
3014  21
3015  25
3016  23
3017  19
3018  28
3019  18
3020  26
3021  28
3022  25
3023  31
3024  20
3025  27
3026  31
3027  29
3028  20
3029  24
3030  26
3031  21
3032  18
3033  20
3034  18
3035  26
3036  20
3037  27
3038  21
3039  22
3040  19
3041  23
3042  28
3043  34
3044  23
3045  17
3046  26
3047  32
3048  23
3049  21
3050  20
3051  23
3052  23
3053  25
3054  23
3055  24
3056  18
3057  17
3058  10
3059  19
3060  17
3061  25
3062  21
3063  22
3064  29
3065  25
3066  33
3067  21
3068  30
3069  15
3070  20
3071  32
3072  22
3073  17
3074  21
3075  19
3076  27
3077  23
3078  26
3079  25
3080  27
3081  22
3082  26
3083  20
3084  22
3085  16
3086  23
3087  21
3088  24
3089  21
3090  28
3091  26
3092  23
3093  24
3094  25
3095  28
3096  21
3097  14
3098  23
3099  25
3100  20
3101  24
3102  20
3103  16
3104  15
3105  15
3106  23
3107  21
3108  15
3109  31
3110  15
3111  26
3112  21
3113  20
3114  14
3115  19
3116  18
3117  18
3118  12
3119  12
3120  27
3121  12
3122  16
3123  22
3124  19
3125  28
3126  23
3127  14
3128  9
3129  31
3130  17
3131  14
3132  21
3133  21
3134  23
3135  24
3136  18
3137  17
3138  21
3139  25
3140  16
3141  27
3142  25
3143  26
3144  24
3145  22
3146  16
3147  22
3148  16
3149  15
3150  21
3151  19
3152  17
3153  14
3154  20
3155  13
3156  25
3157  31
3158  24
3159  20
3160  17
3161  22
3162  14
3163  18
3164  23
3165  11
3166  20
3167  21
3168  31
3169  9
3170  18
3171  15
3172  20
3173  19
3174  20
3175  20
3176  15
3177  19
3178  17
3179  8
3180  26
3181  23
3182  12
3183  22
3184  28
3185  14
3186  24
3187  20
3188  20
3189  19
3190  24
3191  24
3192  14
3193  14
3194  26
3195  19
3196  11
3197  17
3198  15
3199  23
3200  19
3201  22
3202  18
3203  22
3204  14
3205  10
3206  18
3207  27
3208  18
3209  22
3210  16
3211  21
3212  19
3213  23
3214  17
3215  19
3216  14
3217  18
3218  18
3219  17
3220  16
3221  23
3222  13
3223  14
3224  19
3225  19
3226  18
3227  13
3228  21
3229  20
3230  15
3231  18
3232  19
3233  12
3234  17
3235  25
3236  20
3237  21
3238  13
3239  15
3240  22
3241  14
3242  16
3243  29
3244  18
3245  19
3246  13
3247  15
3248  13
3249  14
3250  12
3251  17
3252  15
3253  14
3254  23
3255  18
3256  13
3257  13
3258  17
3259  20
3260  19
3261  24
3262  12
3263  10
3264  27
3265  13
3266  23
3267  21
3268  21
3269  22
3270  18
3271  19
3272  16
3273  14
3274  18
3275  16
3276  20
3277  18
3278  16
3279  12
3280  18
3281  25
3282  10
3283  20
3284  13
3285  20
3286  12
3287  12
3288  21
3289  18
3290  15
3291  11
3292  15
3293  13
3294  12
3295  19
3296  14
3297  17
3298  22
3299  22
3300  17
3301  16
3302  23
3303  19
3304  10
3305  9
3306  13
3307  16
3308  23
3309  12
3310  15
3311  10
3312  19
3313  11
3314  13
3315  24
3316  13
3317  17
3318  21
3319  15
3320  15
3321  20
3322  22
3323  21
3324  13
3325  19
3326  19
3327  15
3328  13
3329  12
3330  15
3331  18
3332  11
3333  22
3334  16
3335  16
3336  17
3337  14
3338  23
3339  19
3340  14
3341  16
3342  13
3343  17
3344  12
3345  12
3346  14
3347  17
3348  13
3349  15
3350  17
3351  10
3352  29
3353  14
3354  14
3355  18
3356  17
3357  17
3358  10
3359  19
3360  19
3361  11
3362  15
3363  18
3364  15
3365  16
3366  11
3367  15
3368  14
3369  27
3370  9
3371  13
3372  11
3373  18
3374  9
3375  14
3376  17
3377  11
3378  16
3379  9
3380  12
3381  15
3382  21
3383  22
3384  18
3385  10
3386  18
3387  17
3388  19
3389  15
3390  18
3391  11
3392  11
3393  16
3394  15
3395  9
3396  22
3397  11
3398  22
3399  16
3400  20
3401  16
3402  20
3403  9
3404  12
3405  7
3406  20
3407  12
3408  17
3409  8
3410  10
3411  16
3412  16
3413  8
3414  13
3415  10
3416  13
3417  18
3418  11
3419  12
3420  10
3421  21
3422  13
3423  15
3424  10
3425  20
3426  13
3427  9
3428  14
3429  16
3430  18
3431  18
3432  19
3433  15
3434  15
3435  21
3436  11
3437  5
3438  19
3439  13
3440  9
3441  12
3442  16
3443  16
3444  22
3445  13
3446  15
3447  11
3448  12
3449  16
3450  27
3451  20
3452  19
3453  15
3454  13
3455  16
3456  11
3457  10
3458  16
3459  11
3460  13
3461  5
3462  10
3463  19
3464  14
3465  17
3466  13
3467  9
3468  18
3469  12
3470  15
3471  14
3472  14
3473  12
3474  21
3475  15
3476  9
3477  16
3478  18
3479  14
3480  15
3481  15
3482  14
3483  25
3484  15
3485  16
3486  16
3487  12
3488  16
3489  14
3490  10
3491  14
3492  12
3493  12
3494  9
3495  17
3496  19
3497  13
3498  11
3499  11
3500  12
3501  15
3502  12
3503  16
3504  11
3505  17
3506  17
3507  12
3508  16
3509  11
3510  19
3511  11
3512  11
3513  17
3514  16
3515  12
3516  16
3517  14
3518  13
3519  10
3520  18
3521  10
3522  16
3523  17
3524  20
3525  8
3526  16
3527  16
3528  17
3529  7
3530  13
3531  18
3532  13
3533  8
3534  19
3535  17
3536  8
3537  11
3538  8
3539  19
3540  13
3541  8
3542  15
3543  17
3544  15
3545  16
3546  18
3547  11
3548  13
3549  10
3550  7
3551  10
3552  16
3553  17
3554  16
3555  22
3556  11
3557  17
3558  12
3559  14
3560  15
3561  16
3562  14
3563  7
3564  12
3565  14
3566  14
3567  17
3568  13
3569  12
3570  20
3571  11
3572  14
3573  13
3574  8
3575  13
3576  12
3577  13
3578  15
3579  16
3580  17
3581  13
3582  18
3583  13
3584  11
3585  12
3586  11
3587  13
3588  16
3589  12
3590  11
3591  10
3592  8
3593  9
3594  16
3595  13
3596  12
3597  12
3598  9
3599  9
3600  9
3601  16
3602  12
3603  10
3604  17
3605  19
3606  14
3607  11
3608  17
3609  14
3610  12
3611  13
3612  15
3613  15
3614  20
3615  10
3616  9
3617  13
3618  19
3619  12
3620  16
3621  11
3622  18
3623  22
3624  12
3625  11
3626  9
3627  8
3628  14
3629  8
3630  17
3631  17
3632  16
3633  12
3634  10
3635  21
3636  16
3637  18
3638  6
3639  12
3640  7
3641  11
3642  17
3643  14
3644  6
3645  9
3646  12
3647  10
3648  17
3649  12
3650  12
3651  12
3652  19
3653  20
3654  13
3655  14
3656  14
3657  9
3658  10
3659  9
3660  7
3661  21
3662  18
3663  14
3664  13
3665  9
3666  17
3667  13
3668  11
3669  11
3670  15
3671  14
3672  13
3673  15
3674  10
3675  24
3676  11
3677  9
3678  11
3679  13
3680  11
3681  13
3682  11
3683  14
3684  18
3685  7
3686  16
3687  19
3688  11
3689  12
3690  10
3691  19
3692  14
3693  11
3694  25
3695  9
3696  12
3697  14
3698  14
3699  13
3700  11
3701  14
3702  11
3703  15
3704  16
3705  12
3706  16
3707  9
3708  14
3709  10
3710  18
3711  9
3712  12
3713  8
3714  14
3715  9
3716  11
3717  13
3718  17
3719  15
3720  11
3721  17
3722  19
3723  16
3724  18
3725  13
3726  10
3727  7
3728  16
3729  18
3730  6
3731  9
3732  16
3733  14
3734  15
3735  16
3736  13
3737  12
3738  16
3739  13
3740  15
3741  13
3742  12
3743  10
3744  12
3745  14
3746  25
3747  13
3748  9
3749  15
3750  14
3751  4
3752  15
3753  18
3754  9
3755  14
3756  14
3757  11
3758  21
3759  14
3760  12
3761  13
3762  12
3763  12
3764  14
3765  15
3766  18
3767  11
3768  15
3769  17
3770  13
3771  11
3772  18
3773  14
3774  10
3775  16
3776  17
3777  10
3778  15
3779  14
3780  16
3781  14
3782  11
3783  10
3784  13
3785  12
3786  11
3787  12
3788  15
3789  17
3790  9
3791  14
3792  8
3793  12
3794  10
3795  15
3796  15
3797  19
3798  19
3799  16
3800  9
3801  16
3802  16
3803  15
3804  12
3805  17
3806  16
3807  7
3808  10
3809  5
3810  13
3811  12
3812  15
3813  13
3814  6
3815  10
3816  9
3817  13
3818  17
3819  10
3820  8
3821  9
3822  12
3823  16
3824  12
3825  12
3826  15
3827  13
3828  7
3829  12
3830  11
3831  11
3832  10
3833  11
3834  11
3835  13
3836  18
3837  5
3838  8
3839  17
3840  0
3841  0
3842  0
3843  0
3844  0
3845  0
3846  0
3847  0
3848  0
3849  0
3850  0
3851  0
3852  0
3853  0
3854  0
3855  0
3856  0
3857  0
3858  0
3859  0
3860  0
3861  0
3862  0
3863  0
3864  0
3865  0
3866  0
3867  0
3868  0
3869  0
3870  0
3871  0
3872  0
3873  0
3874  0
3875  0
3876  0
3877  0
3878  0
3879  0
3880  0
3881  0
3882  0
3883  0
3884  0
3885  0
3886  0
3887  0
3888  0
3889  0
3890  0
3891  0
3892  0
3893  0
3894  0
3895  0
3896  0
3897  0
3898  0
3899  0
3900  0
3901  0
3902  0
3903  0
3904  0
3905  0
3906  0
3907  0
3908  0
3909  0
3910  0
3911  0
3912  0
3913  0
3914  0
3915  0
3916  0
3917  0
3918  0
3919  0
3920  0
3921  0
3922  0
3923  0
3924  0
3925  0
3926  0
3927  0
3928  0
3929  0
3930  0
3931  0
3932  0
3933  0
3934  0
3935  0
3936  0
3937  0
3938  0
3939  0
3940  0
3941  0
3942  0
3943  0
3944  0
3945  0
3946  0
3947  0
3948  0
3949  0
3950  0
3951  0
3952  0
3953  0
3954  0
3955  0
3956  0
3957  0
3958  0
3959  0
3960  0
3961  0
3962  0
3963  0
3964  0
3965  0
3966  0
3967  0
3968  0
3969  0
3970  0
3971  0
3972  0
3973  0
3974  0
3975  0
3976  0
3977  0
3978  0
3979  0
3980  0
3981  0
3982  0
3983  0
3984  0
3985  0
3986  0
3987  0
3988  0
3989  0
3990  0
3991  0
3992  0
3993  0
3994  0
3995  0
3996  0
3997  0
3998  0
3999  0
4000  0
4001  0
4002  0
4003  0
4004  0
4005  0
4006  0
4007  0
4008  0
4009  0
4010  0
4011  0
4012  0
4013  0
4014  0
4015  0
4016  0
4017  0
4018  0
4019  0
4020  0
4021  0
4022  0
4023  0
4024  0
4025  0
4026  0
4027  0
4028  0
4029  0
4030  0
4031  0
4032  0
4033  0
4034  0
4035  0
4036  0
4037  0
4038  0
4039  0
4040  0
4041  0
4042  0
4043  0
4044  0
4045  0
4046  0
4047  0
4048  0
4049  0
4050  0
4051  0
4052  0
4053  0
4054  0
4055  0
4056  0
4057  0
4058  0
4059  0
4060  0
4061  0
4062  0
4063  0
4064  0
4065  0
4066  0
4067  0
4068  0
4069  0
4070  0
4071  0
4072  0
4073  0
4074  0
4075  0
4076  0
4077  0
4078  0
4079  0
4080  0
4081  0
4082  0
4083  0
4084  0
4085  0
4086  0
4087  0
4088  0
4089  0
4090  0
4091  0
4092  0
4093  0
4094  0
4095  0
