0  412
1  471
2  483
3  604
4  757
5  829
6  963
7  1069
8  1140
9  1240
10  1325
11  1380
12  1402
13  1511
14  1526
15  1456
16  1427
17  1493
18  1347
19  1357
20  1264
21  1145
22  1113
23  913
24  869
25  776
26  658
27  522
28  456
29  396
30  315
31  248
32  213
33  186
34  135
35  110
36  64
37  62
38  51
39  35
40  25
41  20
42  17
43  6
44  5
45  6
46  5
47  3
48  0
49  1
50  2
51  0
52  0
53  0
54  0
55  1
56  0
57  0
58  0
59  0
60  0
61  0
62  0
63  1
64  0
65  0
66  0
67  0
68  0
69  0
70  0
71  0
72  0
73  0
74  0
75  0
76  0
77  0
78  0
79  0
80  0
81  1
82  0
83  0
84  0
85  0
86  1
87  0
88  0
89  0
90  0
91  0
92  0
93  0
94  0
95  0
96  0
97  0
98  0
99  0
100  0
101  0
102  0
103  0
104  0
105  0
106  0
107  0
108  0
109  0
110  0
111  0
112  0
113  0
114  0
115  0
116  0
117  0
118  0
119  0
120  0
121  1
122  0
123  0
124  0
125  1
126  0
127  0
128  0
129  0
130  0
131  0
132  0
133  0
134  0
135  0
136  0
137  0
138  0
139  0
140  0
141  0
142  0
143  1
144  0
145  0
146  0
147  0
148  0
149  0
150  0
151  0
152  0
153  0
154  0
155  0
156  0
157  0
158  0
159  0
160  0
161  0
162  0
163  0
164  0
165  0
166  0
167  0
168  0
169  0
170  0
171  0
172  0
173  0
174  0
175  0
176  0
177  0
178  0
179  0
180  0
181  0
182  0
183  0
184  0
185  1
186  1
187  2
188  1
189  5
190  5
191  4
192  3
193  4
194  8
195  13
196  20
197  19
198  29
199  41
200  34
201  49
202  64
203  77
204  88
205  100
206  123
207  130
208  167
209  178
210  204
211  222
212  277
213  278
214  285
215  272
216  330
217  340
218  377
219  342
220  333
221  348
222  343
223  339
224  330
225  308
226  320
227  274
228  249
229  255
230  239
231  220
232  195
233  165
234  131
235  164
236  155
237  117
238  134
239  101
240  106
241  110
242  108
243  79
244  86
245  82
246  76
247  78
248  93
249  74
250  81
251  75
252  63
253  84
254  66
255  88
256  72
257  79
258  63
259  61
260  72
261  59
262  66
263  81
264  66
265  71
266  78
267  84
268  64
269  54
270  62
271  68
272  69
273  69
274  79
275  86
276  73
277  73
278  79
279  67
280  84
281  91
282  81
283  68
284  85
285  80
286  69
287  82
288  71
289  83
290  80
291  82
292  84
293  75
294  73
295  65
296  76
297  77
298  80
299  81
300  83
301  80
302  81
303  83
304  76
305  73
306  88
307  90
308  84
309  65
310  70
311  59
312  78
313  80
314  86
315  80
316  83
317  77
318  78
319  68
320  80
321  50
322  79
323  70
324  80
325  64
326  66
327  78
328  73
329  81
330  70
331  80
332  81
333  95
334  83
335  81
336  62
337  76
338  94
339  77
340  60
341  76
342  89
343  64
344  86
345  54
346  71
347  86
348  86
349  68
350  84
351  82
352  74
353  88
354  77
355  90
356  70
357  80
358  75
359  87
360  82
361  68
362  88
363  70
364  90
365  81
366  74
367  81
368  73
369  87
370  80
371  82
372  84
373  70
374  87
375  79
376  80
377  83
378  79
379  68
380  84
381  69
382  75
383  81
384  75
385  65
386  85
387  72
388  82
389  70
390  94
391  92
392  75
393  84
394  68
395  87
396  77
397  71
398  88
399  75
400  66
401  88
402  84
403  89
404  82
405  75
406  79
407  78
408  81
409  72
410  87
411  80
412  100
413  89
414  85
415  86
416  99
417  81
418  87
419  84
420  87
421  85
422  74
423  73
424  78
425  65
426  76
427  61
428  86
429  82
430  81
431  72
432  81
433  97
434  84
435  69
436  85
437  87
438  72
439  69
440  70
441  66
442  75
443  70
444  68
445  96
446  74
447  89
448  81
449  81
450  64
451  84
452  66
453  70
454  80
455  82
456  92
457  69
458  69
459  68
460  84
461  77
462  86
463  92
464  88
465  94
466  90
467  81
468  82
469  75
470  76
471  90
472  72
473  72
474  89
475  86
476  92
477  81
478  98
479  91
480  65
481  86
482  88
483  86
484  79
485  83
486  85
487  70
488  91
489  94
490  57
491  82
492  68
493  84
494  72
495  78
496  82
497  74
498  88
499  73
500  73
501  101
502  77
503  105
504  72
505  95
506  73
507  89
508  91
509  89
510  82
511  85
512  83
513  74
514  109
515  90
516  80
517  61
518  98
519  77
520  98
521  84
522  79
523  86
524  95
525  87
526  84
527  77
528  84
529  73
530  68
531  75
532  77
533  79
534  84
535  75
536  83
537  113
538  86
539  82
540  73
541  79
542  91
543  87
544  91
545  88
546  78
547  70
548  84
549  81
550  90
551  92
552  73
553  83
554  93
555  95
556  94
557  77
558  65
559  85
560  78
561  71
562  65
563  67
564  85
565  77
566  78
567  85
568  104
569  74
570  87
571  84
572  66
573  83
574  73
575  87
576  87
577  92
578  94
579  70
580  72
581  86
582  89
583  72
584  72
585  79
586  83
587  87
588  74
589  60
590  64
591  68
592  75
593  83
594  99
595  92
596  80
597  87
598  60
599  71
600  83
601  77
602  65
603  72
604  56
605  76
606  83
607  65
608  85
609  68
610  97
611  85
612  68
613  71
614  77
615  76
616  80
617  98
618  80
619  77
620  68
621  67
622  87
623  65
624  76
625  85
626  78
627  97
628  65
629  81
630  73
631  80
632  76
633  69
634  95
635  80
636  81
637  77
638  59
639  94
640  84
641  98
642  77
643  69
644  79
645  86
646  74
647  78
648  63
649  79
650  72
651  95
652  76
653  67
654  74
655  66
656  78
657  82
658  73
659  69
660  80
661  66
662  71
663  84
664  82
665  69
666  73
667  72
668  84
669  74
670  89
671  72
672  71
673  72
674  81
675  77
676  69
677  84
678  75
679  94
680  81
681  69
682  80
683  77
684  83
685  61
686  71
687  78
688  69
689  76
690  69
691  63
692  61
693  86
694  70
695  80
696  68
697  86
698  71
699  90
700  74
701  79
702  86
703  73
704  76
705  63
706  73
707  64
708  61
709  75
710  56
711  77
712  58
713  72
714  69
715  72
716  65
717  55
718  67
719  58
720  77
721  68
722  73
723  63
724  66
725  53
726  77
727  87
728  68
729  73
730  75
731  67
732  72
733  73
734  70
735  77
736  61
737  74
738  74
739  66
740  79
741  48
742  70
743  64
744  69
745  60
746  80
747  56
748  58
749  61
750  57
751  61
752  69
753  88
754  51
755  73
756  62
757  66
758  65
759  64
760  62
761  62
762  67
763  66
764  67
765  66
766  58
767  56
768  70
769  70
770  59
771  62
772  50
773  59
774  67
775  62
776  46
777  64
778  81
779  62
780  73
781  66
782  62
783  57
784  58
785  61
786  63
787  52
788  60
789  52
790  62
791  69
792  65
793  63
794  53
795  60
796  63
797  64
798  57
799  61
800  51
801  68
802  49
803  69
804  78
805  54
806  55
807  53
808  65
809  57
810  73
811  61
812  49
813  52
814  46
815  50
816  60
817  69
818  45
819  62
820  54
821  50
822  49
823  58
824  51
825  63
826  48
827  60
828  58
829  55
830  55
831  55
832  66
833  56
834  64
835  49
836  71
837  49
838  56
839  47
840  58
841  71
842  62
843  57
844  58
845  46
846  53
847  61
848  53
849  46
850  66
851  41
852  55
853  63
854  60
855  35
856  40
857  52
858  58
859  35
860  57
861  48
862  52
863  47
864  69
865  63
866  35
867  49
868  48
869  49
870  66
871  71
872  43
873  50
874  59
875  57
876  44
877  58
878  44
879  44
880  55
881  41
882  42
883  41
884  37
885  44
886  45
887  49
888  39
889  49
890  54
891  50
892  52
893  35
894  38
895  45
896  37
897  47
898  54
899  49
900  52
901  45
902  38
903  50
904  38
905  31
906  51
907  37
908  51
909  41
910  61
911  46
912  46
913  51
914  44
915  51
916  41
917  44
918  41
919  43
920  27
921  48
922  31
923  44
924  44
925  42
926  33
927  37
928  33
929  33
930  47
931  31
932  23
933  54
934  29
935  35
936  42
937  33
938  24
939  31
940  35
941  32
942  36
943  39
944  27
945  45
946  25
947  40
948  37
949  24
950  26
951  25
952  28
953  38
954  35
955  31
956  30
957  36
958  28
959  36
960  35
961  40
962  38
963  33
964  34
965  21
966  29
967  30
968  36
969  24
970  32
971  22
972  25
973  32
974  31
975  28
976  28
977  28
978  32
979  27
980  24
981  32
982  29
983  38
984  24
985  29
986  33
987  19
988  32
989  23
990  22
991  23
992  31
993  21
994  24
995  21
996  29
997  26
998  16
999  23
1000  31
1001  29
1002  25
1003  29
1004  26
1005  26
1006  22
1007  25
1008  21
1009  22
1010  27
1011  18
1012  18
1013  19
1014  28
1015  23
1016  21
1017  23
1018  22
1019  24
1020  19
1021  21
1022  22
1023  28
1024  13
1025  16
1026  26
1027  13
1028  23
1029  22
1030  29
1031  22
1032  20
1033  25
1034  21
1035  17
1036  17
1037  30
1038  22
1039  17
1040  20
1041  25
1042  18
1043  18
1044  21
1045  19
1046  15
1047  18
1048  27
1049  19
1050  16
1051  11
1052  11
1053  23
1054  21
1055  11
1056  21
1057  10
1058  21
1059  22
1060  19
1061  20
1062  18
1063  18
1064  19
1065  22
1066  16
1067  26
1068  22
1069  23
1070  25
1071  27
1072  19
1073  14
1074  16
1075  25
1076  17
1077  20
1078  27
1079  18
1080  22
1081  23
1082  21
1083  16
1084  26
1085  12
1086  17
1087  14
1088  24
1089  31
1090  23
1091  19
1092  19
1093  23
1094  24
1095  21
1096  12
1097  10
1098  18
1099  24
1100  17
1101  14
1102  19
1103  18
1104  16
1105  20
1106  21
1107  25
1108  18
1109  19
1110  18
1111  24
1112  18
1113  18
1114  19
1115  26
1116  23
1117  13
1118  32
1119  18
1120  22
1121  12
1122  14
1123  24
1124  13
1125  19
1126  20
1127  18
1128  18
1129  22
1130  17
1131  17
1132  20
1133  21
1134  21
1135  22
1136  21
1137  20
1138  20
1139  15
1140  23
1141  18
1142  25
1143  20
1144  34
1145  22
1146  20
1147  21
1148  19
1149  14
1150  17
1151  20
1152  19
1153  23
1154  16
1155  19
1156  24
1157  23
1158  22
1159  16
1160  13
1161  18
1162  18
1163  16
1164  17
1165  23
1166  22
1167  12
1168  13
1169  12
1170  15
1171  19
1172  20
1173  21
1174  16
1175  14
1176  15
1177  13
1178  14
1179  23
1180  12
1181  16
1182  18
1183  13
1184  11
1185  17
1186  14
1187  12
1188  13
1189  17
1190  16
1191  13
1192  18
1193  20
1194  12
1195  12
1196  20
1197  20
1198  15
1199  17
1200  15
1201  20
1202  18
1203  10
1204  25
1205  21
1206  19
1207  16
1208  14
1209  12
1210  14
1211  15
1212  13
1213  12
1214  6
1215  18
1216  17
1217  12
1218  14
1219  14
1220  11
1221  16
1222  17
1223  18
1224  16
1225  15
1226  16
1227  13
1228  19
1229  21
1230  13
1231  19
1232  16
1233  13
1234  14
1235  11
1236  16
1237  9
1238  14
1239  12
1240  14
1241  15
1242  22
1243  18
1244  13
1245  21
1246  18
1247  13
1248  15
1249  14
1250  20
1251  12
1252  13
1253  16
1254  12
1255  10
1256  13
1257  21
1258  15
1259  15
1260  12
1261  15
1262  19
1263  23
1264  10
1265  10
1266  13
1267  14
1268  18
1269  13
1270  23
1271  16
1272  14
1273  25
1274  13
1275  15
1276  13
1277  13
1278  18
1279  19
1280  21
1281  15
1282  21
1283  15
1284  24
1285  14
1286  22
1287  16
1288  13
1289  16
1290  11
1291  12
1292  21
1293  14
1294  15
1295  21
1296  21
1297  23
1298  14
1299  21
1300  14
1301  16
1302  15
1303  13
1304  20
1305  15
1306  22
1307  12
1308  16
1309  13
1310  25
1311  18
1312  16
1313  11
1314  24
1315  17
1316  24
1317  18
1318  23
1319  18
1320  20
1321  20
1322  19
1323  22
1324  19
1325  21
1326  20
1327  28
1328  22
1329  24
1330  21
1331  15
1332  19
1333  24
1334  24
1335  12
1336  15
1337  15
1338  21
1339  10
1340  17
1341  19
1342  22
1343  13
1344  26
1345  17
1346  28
1347  9
1348  18
1349  17
1350  24
1351  20
1352  17
1353  20
1354  24
1355  12
1356  21
1357  19
1358  27
1359  17
1360  16
1361  21
1362  22
1363  19
1364  20
1365  19
1366  22
1367  22
1368  30
1369  22
1370  19
1371  24
1372  16
1373  20
1374  24
1375  23
1376  21
1377  21
1378  21
1379  19
1380  27
1381  15
1382  27
1383  27
1384  15
1385  26
1386  30
1387  21
1388  20
1389  25
1390  30
1391  17
1392  34
1393  17
1394  29
1395  27
1396  15
1397  21
1398  20
1399  23
1400  18
1401  28
1402  29
1403  29
1404  15
1405  30
1406  24
1407  24
1408  16
1409  25
1410  25
1411  30
1412  21
1413  33
1414  22
1415  18
1416  26
1417  35
1418  31
1419  25
1420  23
1421  31
1422  15
1423  20
1424  26
1425  18
1426  17
1427  28
1428  26
1429  30
1430  21
1431  20
1432  27
1433  21
1434  37
1435  34
1436  15
1437  19
1438  21
1439  22
1440  36
1441  26
1442  23
1443  27
1444  18
1445  30
1446  21
1447  25
1448  29
1449  27
1450  25
1451  33
1452  26
1453  39
1454  29
1455  37
1456  24
1457  24
1458  29
1459  20
1460  30
1461  33
1462  31
1463  23
1464  28
1465  35
1466  37
1467  36
1468  34
1469  34
1470  24
1471  28
1472  24
1473  22
1474  25
1475  28
1476  26
1477  43
1478  30
1479  36
1480  12
1481  30
1482  31
1483  26
1484  19
1485  30
1486  26
1487  33
1488  36
1489  26
1490  34
1491  26
1492  23
1493  38
1494  29
1495  27
1496  30
1497  31
1498  31
1499  35
1500  25
1501  38
1502  18
1503  22
1504  36
1505  30
1506  37
1507  22
1508  28
1509  33
1510  34
1511  26
1512  38
1513  33
1514  24
1515  40
1516  31
1517  32
1518  33
1519  26
1520  35
1521  29
1522  31
1523  37
1524  36
1525  25
1526  30
1527  27
1528  28
1529  32
1530  30
1531  39
1532  26
1533  39
1534  40
1535  33
1536  33
1537  34
1538  48
1539  25
1540  44
1541  35
1542  38
1543  35
1544  33
1545  37
1546  32
1547  32
1548  30
1549  37
1550  34
1551  36
1552  35
1553  30
1554  35
1555  33
1556  33
1557  43
1558  35
1559  45
1560  23
1561  28
1562  42
1563  23
1564  26
1565  33
1566  23
1567  30
1568  29
1569  31
1570  33
1571  40
1572  35
1573  37
1574  36
1575  44
1576  53
1577  45
1578  30
1579  43
1580  33
1581  33
1582  35
1583  40
1584  26
1585  35
1586  37
1587  40
1588  44
1589  32
1590  35
1591  36
1592  40
1593  40
1594  35
1595  43
1596  36
1597  45
1598  45
1599  50
1600  41
1601  39
1602  38
1603  40
1604  48
1605  56
1606  42
1607  31
1608  42
1609  41
1610  48
1611  48
1612  41
1613  30
1614  48
1615  55
1616  32
1617  48
1618  57
1619  45
1620  41
1621  47
1622  45
1623  41
1624  37
1625  42
1626  53
1627  43
1628  39
1629  55
1630  34
1631  45
1632  45
1633  33
1634  32
1635  49
1636  55
1637  58
1638  57
1639  47
1640  42
1641  52
1642  46
1643  58
1644  46
1645  48
1646  48
1647  36
1648  50
1649  57
1650  41
1651  50
1652  42
1653  54
1654  62
1655  53
1656  60
1657  63
1658  79
1659  82
1660  57
1661  84
1662  100
1663  105
1664  100
1665  93
1666  116
1667  133
1668  130
1669  180
1670  206
1671  221
1672  270
1673  290
1674  313
1675  393
1676  454
1677  497
1678  535
1679  607
1680  689
1681  673
1682  839
1683  849
1684  934
1685  939
1686  968
1687  987
1688  1067
1689  1057
1690  1086
1691  1102
1692  1083
1693  1127
1694  1159
1695  1058
1696  1017
1697  985
1698  908
1699  839
1700  823
1701  768
1702  723
1703  688
1704  692
1705  615
1706  574
1707  507
1708  472
1709  451
1710  415
1711  374
1712  335
1713  304
1714  309
1715  316
1716  266
1717  253
1718  238
1719  218
1720  201
1721  176
1722  191
1723  172
1724  163
1725  157
1726  167
1727  111
1728  122
1729  127
1730  123
1731  133
1732  119
1733  80
1734  104
1735  94
1736  91
1737  89
1738  83
1739  73
1740  75
1741  80
1742  65
1743  63
1744  78
1745  63
1746  61
1747  70
1748  70
1749  62
1750  66
1751  50
1752  56
1753  59
1754  43
1755  63
1756  56
1757  55
1758  48
1759  49
1760  35
1761  50
1762  61
1763  46
1764  47
1765  41
1766  52
1767  39
1768  38
1769  49
1770  53
1771  41
1772  53
1773  65
1774  56
1775  57
1776  45
1777  56
1778  52
1779  48
1780  46
1781  39
1782  52
1783  56
1784  46
1785  57
1786  51
1787  50
1788  45
1789  50
1790  49
1791  52
1792  53
1793  50
1794  45
1795  51
1796  47
1797  59
1798  46
1799  47
1800  54
1801  56
1802  44
1803  57
1804  43
1805  52
1806  45
1807  52
1808  68
1809  46
1810  55
1811  54
1812  39
1813  57
1814  52
1815  56
1816  49
1817  56
1818  49
1819  51
1820  47
1821  51
1822  50
1823  53
1824  57
1825  52
1826  56
1827  52
1828  58
1829  48
1830  53
1831  67
1832  59
1833  54
1834  52
1835  42
1836  49
1837  66
1838  48
1839  55
1840  63
1841  47
1842  47
1843  37
1844  62
1845  50
1846  50
1847  53
1848  69
1849  60
1850  44
1851  48
1852  68
1853  54
1854  72
1855  55
1856  42
1857  52
1858  55
1859  46
1860  57
1861  58
1862  60
1863  54
1864  59
1865  70
1866  57
1867  57
1868  60
1869  59
1870  58
1871  51
1872  55
1873  62
1874  67
1875  79
1876  78
1877  49
1878  52
1879  47
1880  60
1881  45
1882  54
1883  74
1884  54
1885  67
1886  46
1887  60
1888  46
1889  50
1890  53
1891  64
1892  76
1893  64
1894  64
1895  47
1896  44
1897  57
1898  59
1899  38
1900  61
1901  47
1902  56
1903  63
1904  60
1905  72
1906  66
1907  47
1908  64
1909  59
1910  55
1911  66
1912  56
1913  60
1914  58
1915  54
1916  59
1917  60
1918  60
1919  58
1920  62
1921  66
1922  67
1923  61
1924  61
1925  86
1926  67
1927  73
1928  64
1929  57
1930  60
1931  50
1932  64
1933  53
1934  65
1935  74
1936  63
1937  62
1938  57
1939  58
1940  69
1941  55
1942  66
1943  56
1944  61
1945  72
1946  56
1947  56
1948  76
1949  70
1950  66
1951  67
1952  64
1953  65
1954  60
1955  62
1956  70
1957  63
1958  70
1959  61
1960  60
1961  82
1962  70
1963  64
1964  72
1965  55
1966  60
1967  61
1968  72
1969  70
1970  64
1971  62
1972  73
1973  52
1974  57
1975  64
1976  60
1977  75
1978  67
1979  68
1980  69
1981  70
1982  60
1983  67
1984  81
1985  68
1986  62
1987  66
1988  52
1989  66
1990  62
1991  69
1992  83
1993  57
1994  69
1995  52
1996  72
1997  85
1998  62
1999  66
2000  64
2001  61
2002  74
2003  90
2004  60
2005  59
2006  79
2007  70
2008  67
2009  75
2010  77
2011  82
2012  54
2013  56
2014  78
2015  68
2016  66
2017  78
2018  71
2019  78
2020  63
2021  75
2022  77
2023  73
2024  63
2025  69
2026  67
2027  82
2028  67
2029  70
2030  72
2031  60
2032  61
2033  71
2034  64
2035  64
2036  71
2037  80
2038  67
2039  81
2040  65
2041  60
2042  77
2043  66
2044  74
2045  70
2046  74
2047  65
2048  70
2049  64
2050  61
2051  75
2052  80
2053  48
2054  77
2055  72
2056  77
2057  59
2058  79
2059  66
2060  80
2061  63
2062  63
2063  65
2064  97
2065  83
2066  65
2067  85
2068  66
2069  64
2070  70
2071  77
2072  69
2073  68
2074  76
2075  70
2076  71
2077  75
2078  66
2079  71
2080  82
2081  72
2082  79
2083  59
2084  81
2085  66
2086  59
2087  57
2088  55
2089  63
2090  80
2091  68
2092  64
2093  54
2094  86
2095  79
2096  85
2097  68
2098  53
2099  52
2100  58
2101  82
2102  79
2103  66
2104  78
2105  78
2106  75
2107  72
2108  78
2109  75
2110  52
2111  69
2112  68
2113  68
2114  57
2115  76
2116  65
2117  65
2118  61
2119  65
2120  65
2121  72
2122  68
2123  70
2124  65
2125  67
2126  86
2127  61
2128  62
2129  66
2130  71
2131  73
2132  63
2133  72
2134  70
2135  65
2136  75
2137  70
2138  85
2139  75
2140  73
2141  69
2142  64
2143  66
2144  72
2145  73
2146  65
2147  85
2148  66
2149  70
2150  81
2151  74
2152  70
2153  89
2154  66
2155  93
2156  62
2157  66
2158  70
2159  68
2160  64
2161  83
2162  71
2163  69
2164  62
2165  75
2166  75
2167  80
2168  72
2169  78
2170  78
2171  77
2172  78
2173  64
2174  77
2175  86
2176  86
2177  76
2178  81
2179  65
2180  80
2181  84
2182  64
2183  83
2184  71
2185  66
2186  78
2187  75
2188  67
2189  66
2190  112
2191  71
2192  71
2193  81
2194  71
2195  79
2196  73
2197  73
2198  65
2199  78
2200  73
2201  90
2202  81
2203  76
2204  76
2205  86
2206  81
2207  65
2208  70
2209  83
2210  68
2211  73
2212  77
2213  90
2214  64
2215  83
2216  76
2217  68
2218  70
2219  64
2220  80
2221  78
2222  69
2223  90
2224  81
2225  80
2226  80
2227  71
2228  72
2229  72
2230  99
2231  86
2232  65
2233  86
2234  78
2235  64
2236  78
2237  88
2238  78
2239  84
2240  87
2241  95
2242  77
2243  82
2244  74
2245  65
2246  90
2247  84
2248  72
2249  100
2250  91
2251  81
2252  66
2253  65
2254  85
2255  91
2256  85
2257  84
2258  82
2259  87
2260  82
2261  77
2262  68
2263  72
2264  83
2265  65
2266  99
2267  77
2268  77
2269  97
2270  84
2271  90
2272  75
2273  80
2274  82
2275  75
2276  79
2277  74
2278  76
2279  73
2280  92
2281  72
2282  74
2283  67
2284  95
2285  89
2286  80
2287  89
2288  72
2289  86
2290  87
2291  82
2292  79
2293  71
2294  73
2295  85
2296  74
2297  89
2298  77
2299  70
2300  90
2301  79
2302  85
2303  98
2304  93
2305  89
2306  78
2307  89
2308  72
2309  68
2310  79
2311  71
2312  68
2313  85
2314  66
2315  67
2316  79
2317  63
2318  71
2319  89
2320  90
2321  68
2322  68
2323  82
2324  77
2325  93
2326  89
2327  88
2328  86
2329  86
2330  82
2331  74
2332  86
2333  74
2334  67
2335  76
2336  88
2337  76
2338  73
2339  87
2340  66
2341  78
2342  80
2343  82
2344  77
2345  85
2346  80
2347  82
2348  74
2349  79
2350  74
2351  69
2352  72
2353  85
2354  83
2355  78
2356  81
2357  81
2358  76
2359  85
2360  83
2361  97
2362  85
2363  80
2364  71
2365  90
2366  66
2367  89
2368  75
2369  95
2370  87
2371  89
2372  92
2373  89
2374  90
2375  88
2376  82
2377  89
2378  90
2379  70
2380  82
2381  92
2382  87
2383  85
2384  85
2385  92
2386  83
2387  75
2388  80
2389  75
2390  67
2391  72
2392  81
2393  73
2394  73
2395  100
2396  89
2397  87
2398  90
2399  77
2400  90
2401  76
2402  72
2403  71
2404  73
2405  83
2406  66
2407  87
2408  86
2409  69
2410  85
2411  79
2412  83
2413  77
2414  78
2415  83
2416  80
2417  89
2418  78
2419  91
2420  87
2421  87
2422  78
2423  91
2424  76
2425  87
2426  62
2427  91
2428  80
2429  83
2430  87
2431  91
2432  93
2433  73
2434  69
2435  70
2436  95
2437  87
2438  69
2439  68
2440  85
2441  90
2442  76
2443  69
2444  91
2445  81
2446  81
2447  77
2448  82
2449  77
2450  82
2451  97
2452  79
2453  79
2454  81
2455  78
2456  91
2457  77
2458  69
2459  73
2460  73
2461  86
2462  89
2463  98
2464  83
2465  96
2466  85
2467  87
2468  67
2469  85
2470  80
2471  87
2472  81
2473  74
2474  82
2475  86
2476  83
2477  75
2478  77
2479  73
2480  90
2481  85
2482  79
2483  78
2484  88
2485  67
2486  69
2487  65
2488  65
2489  86
2490  67
2491  75
2492  86
2493  88
2494  76
2495  79
2496  73
2497  69
2498  66
2499  85
2500  75
2501  95
2502  60
2503  78
2504  84
2505  73
2506  80
2507  80
2508  88
2509  73
2510  96
2511  97
2512  77
2513  60
2514  64
2515  72
2516  67
2517  84
2518  65
2519  66
2520  88
2521  78
2522  73
2523  84
2524  73
2525  93
2526  80
2527  86
2528  73
2529  93
2530  81
2531  81
2532  71
2533  79
2534  71
2535  94
2536  75
2537  84
2538  65
2539  68
2540  88
2541  88
2542  71
2543  82
2544  79
2545  77
2546  66
2547  77
2548  70
2549  62
2550  59
2551  64
2552  84
2553  70
2554  81
2555  71
2556  58
2557  79
2558  85
2559  72
2560  84
2561  69
2562  79
2563  68
2564  71
2565  84
2566  73
2567  64
2568  81
2569  66
2570  77
2571  84
2572  62
2573  58
2574  65
2575  81
2576  82
2577  80
2578  74
2579  68
2580  83
2581  64
2582  74
2583  63
2584  67
2585  72
2586  63
2587  69
2588  54
2589  72
2590  80
2591  67
2592  54
2593  76
2594  51
2595  64
2596  68
2597  95
2598  66
2599  76
2600  54
2601  61
2602  72
2603  59
2604  77
2605  67
2606  67
2607  71
2608  65
2609  74
2610  84
2611  62
2612  65
2613  70
2614  73
2615  64
2616  67
2617  65
2618  61
2619  70
2620  75
2621  79
2622  77
2623  67
2624  73
2625  71
2626  62
2627  72
2628  66
2629  57
2630  57
2631  58
2632  70
2633  76
2634  53
2635  61
2636  56
2637  82
2638  73
2639  71
2640  57
2641  71
2642  55
2643  52
2644  72
2645  72
2646  54
2647  71
2648  54
2649  68
2650  45
2651  58
2652  58
2653  55
2654  62
2655  64
2656  54
2657  62
2658  53
2659  62
2660  59
2661  61
2662  68
2663  66
2664  72
2665  54
2666  54
2667  64
2668  67
2669  64
2670  66
2671  60
2672  61
2673  54
2674  46
2675  52
2676  70
2677  60
2678  56
2679  69
2680  54
2681  72
2682  61
2683  56
2684  58
2685  67
2686  45
2687  45
2688  62
2689  52
2690  47
2691  44
2692  56
2693  49
2694  59
2695  64
2696  52
2697  51
2698  61
2699  56
2700  62
2701  51
2702  50
2703  61
2704  62
2705  58
2706  66
2707  56
2708  58
2709  61
2710  61
2711  57
2712  42
2713  57
2714  55
2715  52
2716  55
2717  65
2718  42
2719  53
2720  49
2721  58
2722  58
2723  47
2724  61
2725  58
2726  46
2727  52
2728  64
2729  54
2730  66
2731  48
2732  58
2733  56
2734  52
2735  55
2736  54
2737  46
2738  51
2739  54
2740  65
2741  56
2742  58
2743  56
2744  71
2745  57
2746  44
2747  54
2748  48
2749  50
2750  54
2751  41
2752  47
2753  49
2754  59
2755  43
2756  50
2757  54
2758  48
2759  59
2760  47
2761  41
2762  43
2763  53
2764  54
2765  41
2766  48
2767  42
2768  52
2769  50
2770  47
2771  55
2772  38
2773  42
2774  38
2775  49
2776  38
2777  45
2778  54
2779  41
2780  53
2781  44
2782  43
2783  45
2784  43
2785  48
2786  42
2787  51
2788  36
2789  34
2790  50
2791  43
2792  47
2793  27
2794  36
2795  51
2796  37
2797  36
2798  44
2799  44
2800  51
2801  46
2802  35
2803  38
2804  36
2805  32
2806  40
2807  35
2808  42
2809  34
2810  34
2811  57
2812  35
2813  43
2814  38
2815  39
2816  38
2817  37
2818  30
2819  35
2820  36
2821  23
2822  38
2823  25
2824  25
2825  36
2826  45
2827  29
2828  18
2829  30
2830  35
2831  31
2832  34
2833  30
2834  30
2835  34
2836  36
2837  22
2838  40
2839  40
2840  35
2841  32
2842  29
2843  26
2844  27
2845  17
2846  35
2847  24
2848  31
2849  27
2850  32
2851  33
2852  28
2853  33
2854  26
2855  21
2856  28
2857  21
2858  30
2859  26
2860  22
2861  33
2862  20
2863  27
2864  29
2865  23
2866  19
2867  27
2868  28
2869  30
2870  36
2871  23
2872  32
2873  21
2874  27
2875  20
2876  27
2877  29
2878  18
2879  25
2880  24
2881  25
2882  31
2883  27
2884  25
2885  20
2886  23
2887  14
2888  24
2889  25
2890  31
2891  32
2892  21
2893  20
2894  14
2895  25
2896  24
2897  29
2898  25
2899  17
2900  18
2901  19
2902  24
2903  20
2904  22
2905  25
2906  18
2907  17
2908  15
2909  15
2910  16
2911  25
2912  19
2913  15
2914  27
2915  16
2916  20
2917  21
2918  18
2919  24
2920  17
2921  20
2922  23
2923  19
2924  22
2925  16
2926  20
2927  22
2928  19
2929  21
2930  22
2931  28
2932  20
2933  16
2934  19
2935  15
2936  23
2937  15
2938  23
2939  23
2940  15
2941  21
2942  16
2943  29
2944  23
2945  16
2946  18
2947  22
2948  10
2949  11
2950  28
2951  19
2952  32
2953  30
2954  20
2955  18
2956  14
2957  24
2958  24
2959  16
2960  18
2961  25
2962  19
2963  24
2964  26
2965  16
2966  30
2967  19
2968  22
2969  27
2970  16
2971  15
2972  18
2973  15
2974  13
2975  24
2976  18
2977  23
2978  20
2979  17
2980  26
2981  27
2982  31
2983  23
2984  24
2985  16
2986  24
2987  18
2988  14
2989  20
2990  23
2991  19
2992  22
2993  20
2994  17
2995  25
2996  19
2997  25
2998  18
2999  22
3000  15
3001  18
3002  17
3003  18
3004  20
3005  20
3006  20
3007  19
3008  18
3009  23
3010  18
3011  18
3012  22
3013  12
3014  21
3015  20
3016  20
3017  21
3018  27
3019  14
3020  27
3021  21
3022  20
3023  25
3024  10
3025  23
3026  16
3027  24
3028  24
3029  18
3030  25
3031  32
3032  26
3033  26
3034  17
3035  22
3036  17
3037  23
3038  27
3039  22
3040  18
3041  16
3042  16
3043  17
3044  23
3045  23
3046  14
3047  22
3048  16
3049  15
3050  17
3051  18
3052  14
3053  19
3054  12
3055  13
3056  17
3057  18
3058  26
3059  18
3060  12
3061  19
3062  25
3063  16
3064  11
3065  25
3066  15
3067  13
3068  16
3069  22
3070  13
3071  7
3072  14
3073  14
3074  19
3075  10
3076  15
3077  20
3078  23
3079  19
3080  15
3081  12
3082  10
3083  16
3084  22
3085  9
3086  9
3087  19
3088  14
3089  19
3090  16
3091  5
3092  7
3093  7
3094  15
3095  4
3096  21
3097  25
3098  24
3099  16
3100  15
3101  15
3102  18
3103  10
3104  11
3105  13
3106  14
3107  8
3108  13
3109  7
3110  13
3111  12
3112  14
3113  12
3114  13
3115  8
3116  20
3117  21
3118  9
3119  7
3120  14
3121  18
3122  15
3123  13
3124  20
3125  10
3126  8
3127  19
3128  22
3129  15
3130  18
3131  14
3132  14
3133  17
3134  21
3135  17
3136  17
3137  15
3138  14
3139  18
3140  17
3141  13
3142  12
3143  11
3144  14
3145  14
3146  21
3147  15
3148  9
3149  17
3150  17
3151  15
3152  15
3153  28
3154  14
3155  11
3156  16
3157  19
3158  17
3159  17
3160  11
3161  18
3162  24
3163  23
3164  18
3165  18
3166  15
3167  22
3168  16
3169  17
3170  15
3171  15
3172  20
3173  19
3174  21
3175  17
3176  13
3177  31
3178  11
3179  22
3180  20
3181  14
3182  9
3183  9
3184  18
3185  20
3186  20
3187  19
3188  17
3189  27
3190  19
3191  21
3192  14
3193  19
3194  24
3195  21
3196  13
3197  14
3198  15
3199  15
3200  18
3201  28
3202  22
3203  17
3204  20
3205  19
3206  21
3207  19
3208  21
3209  21
3210  17
3211  20
3212  17
3213  20
3214  20
3215  10
3216  16
3217  21
3218  24
3219  19
3220  18
3221  24
3222  18
3223  21
3224  22
3225  32
3226  20
3227  19
3228  12
3229  18
3230  13
3231  23
3232  21
3233  18
3234  13
3235  16
3236  18
3237  14
3238  18
3239  18
3240  19
3241  14
3242  23
3243  15
3244  18
3245  20
3246  28
3247  24
3248  25
3249  15
3250  17
3251  17
3252  16
3253  26
3254  19
3255  17
3256  31
3257  24
3258  18
3259  12
3260  25
3261  20
3262  28
3263  21
3264  20
3265  25
3266  19
3267  22
3268  21
3269  25
3270  21
3271  22
3272  18
3273  26
3274  20
3275  27
3276  19
3277  24
3278  20
3279  14
3280  11
3281  29
3282  21
3283  21
3284  28
3285  22
3286  24
3287  25
3288  25
3289  18
3290  25
3291  19
3292  31
3293  27
3294  23
3295  20
3296  24
3297  16
3298  25
3299  34
3300  28
3301  31
3302  22
3303  34
3304  20
3305  33
3306  15
3307  31
3308  25
3309  19
3310  21
3311  30
3312  15
3313  15
3314  20
3315  24
3316  21
3317  33
3318  27
3319  28
3320  29
3321  22
3322  20
3323  16
3324  25
3325  28
3326  32
3327  20
3328  21
3329  31
3330  29
3331  25
3332  23
3333  30
3334  19
3335  30
3336  26
3337  28
3338  29
3339  36
3340  34
3341  32
3342  24
3343  34
3344  31
3345  38
3346  26
3347  35
3348  21
3349  25
3350  31
3351  31
3352  23
3353  37
3354  32
3355  29
3356  25
3357  23
3358  28
3359  28
3360  32
3361  35
3362  33
3363  26
3364  31
3365  29
3366  31
3367  24
3368  35
3369  31
3370  26
3371  41
3372  22
3373  30
3374  39
3375  33
3376  35
3377  23
3378  25
3379  26
3380  26
3381  20
3382  30
3383  33
3384  32
3385  27
3386  25
3387  29
3388  38
3389  38
3390  31
3391  25
3392  33
3393  33
3394  37
3395  39
3396  39
3397  33
3398  32
3399  36
3400  29
3401  29
3402  37
3403  23
3404  29
3405  38
3406  38
3407  27
3408  27
3409  24
3410  38
3411  26
3412  30
3413  35
3414  36
3415  25
3416  34
3417  44
3418  27
3419  28
3420  33
3421  34
3422  39
3423  33
3424  35
3425  33
3426  33
3427  34
3428  25
3429  26
3430  27
3431  31
3432  39
3433  31
3434  31
3435  31
3436  40
3437  31
3438  30
3439  36
3440  28
3441  38
3442  40
3443  34
3444  40
3445  30
3446  39
3447  40
3448  42
3449  30
3450  33
3451  40
3452  24
3453  36
3454  29
3455  24
3456  28
3457  30
3458  42
3459  33
3460  39
3461  33
3462  29
3463  41
3464  39
3465  35
3466  39
3467  32
3468  32
3469  34
3470  34
3471  40
3472  42
3473  33
3474  41
3475  50
3476  30
3477  39
3478  49
3479  25
3480  31
3481  45
3482  37
3483  38
3484  41
3485  43
3486  37
3487  51
3488  33
3489  36
3490  43
3491  33
3492  42
3493  40
3494  46
3495  39
3496  46
3497  25
3498  41
3499  35
3500  50
3501  36
3502  42
3503  46
3504  50
3505  38
3506  47
3507  37
3508  51
3509  39
3510  39
3511  48
3512  42
3513  49
3514  44
3515  50
3516  39
3517  40
3518  42
3519  42
3520  56
3521  48
3522  44
3523  48
3524  54
3525  50
3526  35
3527  48
3528  45
3529  62
3530  51
3531  57
3532  61
3533  51
3534  47
3535  54
3536  64
3537  48
3538  53
3539  66
3540  68
3541  68
3542  88
3543  73
3544  86
3545  97
3546  108
3547  116
3548  123
3549  136
3550  152
3551  169
3552  193
3553  231
3554  252
3555  308
3556  343
3557  337
3558  417
3559  490
3560  602
3561  580
3562  652
3563  685
3564  801
3565  813
3566  882
3567  976
3568  954
3569  1069
3570  982
3571  1146
3572  1107
3573  1157
3574  1096
3575  1114
3576  1091
3577  988
3578  936
3579  984
3580  890
3581  866
3582  895
3583  809
3584  705
3585  638
3586  638
3587  597
3588  531
3589  533
3590  458
3591  426
3592  381
3593  356
3594  320
3595  341
3596  299
3597  258
3598  246
3599  242
3600  223
3601  235
3602  207
3603  179
3604  161
3605  161
3606  178
3607  172
3608  146
3609  145
3610  120
3611  102
3612  109
3613  109
3614  93
3615  124
3616  103
3617  96
3618  96
3619  100
3620  72
3621  82
3622  71
3623  74
3624  68
3625  75
3626  76
3627  76
3628  68
3629  65
3630  59
3631  54
3632  45
3633  45
3634  55
3635  52
3636  56
3637  59
3638  60
3639  73
3640  48
3641  46
3642  60
3643  41
3644  54
3645  51
3646  47
3647  60
3648  43
3649  46
3650  47
3651  55
3652  52
3653  53
3654  50
3655  45
3656  51
3657  50
3658  50
3659  37
3660  52
3661  48
3662  49
3663  54
3664  51
3665  48
3666  43
3667  51
3668  52
3669  39
3670  51
3671  66
3672  47
3673  57
3674  55
3675  63
3676  54
3677  49
3678  44
3679  60
3680  51
3681  58
3682  52
3683  52
3684  43
3685  50
3686  44
3687  66
3688  45
3689  45
3690  56
3691  48
3692  52
3693  62
3694  61
3695  52
3696  47
3697  40
3698  52
3699  55
3700  48
3701  50
3702  53
3703  59
3704  51
3705  66
3706  61
3707  42
3708  56
3709  48
3710  68
3711  55
3712  46
3713  49
3714  61
3715  45
3716  65
3717  51
3718  52
3719  58
3720  54
3721  55
3722  56
3723  61
3724  59
3725  52
3726  53
3727  59
3728  49
3729  60
3730  55
3731  52
3732  54
3733  47
3734  52
3735  52
3736  63
3737  53
3738  52
3739  60
3740  59
3741  56
3742  62
3743  59
3744  77
3745  46
3746  56
3747  50
3748  51
3749  60
3750  54
3751  61
3752  47
3753  66
3754  71
3755  68
3756  60
3757  55
3758  52
3759  55
3760  61
3761  75
3762  57
3763  53
3764  64
3765  62
3766  52
3767  73
3768  53
3769  61
3770  47
3771  61
3772  57
3773  56
3774  56
3775  53
3776  53
3777  56
3778  60
3779  70
3780  49
3781  57
3782  62
3783  56
3784  48
3785  60
3786  53
3787  65
3788  48
3789  62
3790  62
3791  59
3792  57
3793  66
3794  63
3795  67
3796  58
3797  59
3798  69
3799  71
3800  47
3801  62
3802  61
3803  53
3804  61
3805  62
3806  67
3807  69
3808  57
3809  72
3810  61
3811  70
3812  64
3813  54
3814  71
3815  91
3816  74
3817  57
3818  65
3819  73
3820  70
3821  67
3822  49
3823  58
3824  66
3825  60
3826  71
3827  65
3828  58
3829  56
3830  62
3831  68
3832  55
3833  66
3834  64
3835  55
3836  61
3837  65
3838  72
3839  67
3840  0
3841  0
3842  0
3843  0
3844  0
3845  0
3846  0
3847  0
3848  0
3849  0
3850  0
3851  0
3852  0
3853  0
3854  0
3855  0
3856  0
3857  0
3858  0
3859  0
3860  0
3861  0
3862  0
3863  0
3864  0
3865  0
3866  0
3867  0
3868  0
3869  0
3870  0
3871  0
3872  0
3873  0
3874  0
3875  0
3876  0
3877  0
3878  0
3879  0
3880  0
3881  0
3882  0
3883  0
3884  0
3885  0
3886  0
3887  0
3888  0
3889  0
3890  0
3891  0
3892  0
3893  0
3894  0
3895  0
3896  0
3897  0
3898  0
3899  0
3900  0
3901  0
3902  0
3903  0
3904  0
3905  0
3906  0
3907  0
3908  0
3909  0
3910  0
3911  0
3912  0
3913  0
3914  0
3915  0
3916  0
3917  0
3918  0
3919  0
3920  0
3921  0
3922  0
3923  0
3924  0
3925  0
3926  0
3927  0
3928  0
3929  0
3930  0
3931  0
3932  0
3933  0
3934  0
3935  0
3936  0
3937  0
3938  0
3939  0
3940  0
3941  0
3942  0
3943  0
3944  0
3945  0
3946  0
3947  0
3948  0
3949  0
3950  0
3951  0
3952  0
3953  0
3954  0
3955  0
3956  0
3957  0
3958  0
3959  0
3960  0
3961  0
3962  0
3963  0
3964  0
3965  0
3966  0
3967  0
3968  0
3969  0
3970  0
3971  0
3972  0
3973  0
3974  0
3975  0
3976  0
3977  0
3978  0
3979  0
3980  0
3981  0
3982  0
3983  0
3984  0
3985  0
3986  0
3987  0
3988  0
3989  0
3990  0
3991  0
3992  0
3993  0
3994  0
3995  0
3996  0
3997  0
3998  0
3999  0
4000  0
4001  0
4002  0
4003  0
4004  0
4005  0
4006  0
4007  0
4008  0
4009  0
4010  0
4011  0
4012  0
4013  0
4014  0
4015  0
4016  0
4017  0
4018  0
4019  0
4020  0
4021  0
4022  0
4023  0
4024  0
4025  0
4026  0
4027  0
4028  0
4029  0
4030  0
4031  0
4032  0
4033  0
4034  0
4035  0
4036  0
4037  0
4038  0
4039  0
4040  0
4041  0
4042  0
4043  0
4044  0
4045  0
4046  0
4047  0
4048  0
4049  0
4050  0
4051  0
4052  0
4053  0
4054  0
4055  0
4056  0
4057  0
4058  0
4059  0
4060  0
4061  0
4062  0
4063  0
4064  0
4065  0
4066  0
4067  0
4068  0
4069  0
4070  0
4071  0
4072  0
4073  0
4074  0
4075  0
4076  0
4077  0
4078  0
4079  0
4080  0
4081  0
4082  0
4083  0
4084  0
4085  0
4086  0
4087  0
4088  0
4089  0
4090  0
4091  0
4092  0
4093  0
4094  0
4095  0
