0  0
1  0
2  0
3  0
4  0
5  0
6  0
7  0
8  0
9  0
10  0
11  0
12  0
13  0
14  0
15  0
16  0
17  1
18  63
19  251
20  352
21  246
22  105
23  64
24  56
25  59
26  68
27  59
28  57
29  55
30  72
31  61
32  47
33  69
34  50
35  57
36  54
37  77
38  46
39  56
40  59
41  49
42  44
43  35
44  22
45  20
46  12
47  5
48  3
49  1
50  1
51  0
52  1
53  0
54  0
55  0
56  0
57  0
58  0
59  0
60  0
61  0
62  0
63  0
64  0
65  0
66  0
67  0
68  0
69  0
70  0
71  0
72  0
73  0
74  0
75  0
76  0
77  0
78  0
79  0
80  0
81  0
82  0
83  0
84  0
85  0
86  0
87  0
88  0
89  0
90  0
91  0
92  0
93  0
94  0
95  0
96  0
97  0
98  0
99  0
100  0
101  0
102  0
103  0
104  0
105  0
106  0
107  0
108  0
109  0
110  0
111  0
112  0
113  0
114  0
115  0
116  0
117  0
118  0
119  0
120  0
121  0
122  0
123  0
124  0
125  0
126  0
127  0
128  0
129  0
130  0
131  0
132  0
133  0
134  0
135  0
136  0
137  0
138  0
139  0
140  0
141  0
142  0
143  0
144  0
145  0
146  0
147  0
148  0
149  0
150  0
151  0
152  0
153  0
154  0
155  0
156  0
157  0
158  0
159  0
160  0
161  0
162  0
163  0
164  0
165  0
166  0
167  0
168  0
169  0
170  0
171  0
172  0
173  0
174  0
175  0
176  0
177  0
178  3
179  63
180  459
181  1055
182  1144
183  1164
184  2492
185  4652
186  5040
187  3282
188  1773
189  1033
190  835
191  715
192  603
193  517
194  501
195  478
196  445
197  431
198  431
199  411
200  440
201  436
202  424
203  410
204  428
205  428
206  419
207  429
208  438
209  397
210  442
211  443
212  425
213  383
214  380
215  448
216  421
217  389
218  411
219  385
220  452
221  396
222  403
223  395
224  429
225  360
226  389
227  409
228  412
229  349
230  363
231  435
232  386
233  439
234  410
235  394
236  408
237  419
238  415
239  365
240  405
241  397
242  413
243  421
244  409
245  412
246  392
247  394
248  426
249  396
250  394
251  375
252  421
253  405
254  411
255  384
256  448
257  378
258  411
259  386
260  381
261  415
262  420
263  382
264  383
265  430
266  391
267  366
268  381
269  387
270  433
271  385
272  409
273  404
274  419
275  400
276  385
277  396
278  422
279  396
280  394
281  377
282  396
283  421
284  424
285  381
286  391
287  399
288  414
289  413
290  400
291  398
292  403
293  376
294  403
295  403
296  393
297  387
298  384
299  409
300  408
301  391
302  388
303  407
304  407
305  428
306  437
307  394
308  427
309  385
310  415
311  425
312  392
313  368
314  392
315  381
316  391
317  428
318  399
319  370
320  411
321  349
322  389
323  407
324  431
325  384
326  411
327  419
328  436
329  402
330  424
331  411
332  386
333  431
334  415
335  426
336  419
337  367
338  364
339  409
340  416
341  418
342  391
343  435
344  357
345  391
346  422
347  396
348  373
349  398
350  436
351  401
352  408
353  403
354  407
355  408
356  391
357  419
358  420
359  405
360  414
361  386
362  396
363  401
364  412
365  426
366  417
367  407
368  378
369  409
370  447
371  406
372  372
373  430
374  387
375  402
376  386
377  413
378  399
379  442
380  382
381  413
382  383
383  430
384  416
385  371
386  408
387  408
388  435
389  392
390  407
391  420
392  399
393  367
394  406
395  409
396  416
397  386
398  400
399  404
400  386
401  436
402  396
403  368
404  428
405  370
406  395
407  373
408  411
409  423
410  379
411  408
412  380
413  404
414  377
415  429
416  391
417  379
418  412
419  398
420  395
421  389
422  435
423  383
424  369
425  407
426  383
427  402
428  368
429  385
430  410
431  427
432  377
433  400
434  410
435  416
436  400
437  390
438  422
439  428
440  425
441  450
442  393
443  383
444  388
445  416
446  398
447  369
448  415
449  390
450  389
451  412
452  403
453  420
454  394
455  411
456  405
457  430
458  392
459  417
460  435
461  453
462  379
463  408
464  393
465  365
466  413
467  410
468  379
469  399
470  398
471  459
472  403
473  438
474  411
475  415
476  366
477  399
478  369
479  422
480  403
481  387
482  418
483  419
484  394
485  402
486  418
487  381
488  378
489  394
490  413
491  415
492  411
493  406
494  415
495  402
496  416
497  392
498  411
499  398
500  388
501  399
502  400
503  445
504  396
505  391
506  418
507  414
508  408
509  436
510  379
511  393
512  404
513  425
514  389
515  381
516  391
517  431
518  403
519  438
520  465
521  393
522  423
523  362
524  430
525  403
526  419
527  386
528  380
529  418
530  388
531  400
532  390
533  377
534  379
535  402
536  417
537  426
538  394
539  416
540  417
541  407
542  409
543  418
544  405
545  433
546  415
547  414
548  438
549  413
550  397
551  397
552  412
553  412
554  391
555  411
556  419
557  401
558  397
559  399
560  388
561  398
562  370
563  420
564  418
565  366
566  397
567  387
568  425
569  383
570  422
571  415
572  405
573  436
574  391
575  378
576  445
577  391
578  416
579  387
580  429
581  443
582  439
583  385
584  414
585  397
586  380
587  447
588  412
589  365
590  453
591  410
592  409
593  374
594  385
595  393
596  437
597  453
598  404
599  412
600  404
601  373
602  393
603  435
604  395
605  412
606  417
607  407
608  420
609  418
610  380
611  397
612  421
613  397
614  391
615  400
616  410
617  395
618  431
619  438
620  412
621  402
622  371
623  452
624  403
625  433
626  394
627  387
628  399
629  448
630  441
631  455
632  387
633  419
634  398
635  427
636  401
637  465
638  426
639  385
640  422
641  384
642  409
643  402
644  396
645  410
646  408
647  436
648  413
649  410
650  402
651  402
652  438
653  417
654  406
655  380
656  430
657  406
658  414
659  418
660  407
661  418
662  456
663  424
664  438
665  456
666  386
667  429
668  407
669  441
670  401
671  386
672  436
673  435
674  389
675  451
676  436
677  421
678  392
679  425
680  408
681  403
682  433
683  381
684  390
685  428
686  406
687  440
688  416
689  435
690  382
691  429
692  407
693  407
694  391
695  406
696  378
697  402
698  417
699  442
700  436
701  412
702  405
703  413
704  446
705  405
706  416
707  393
708  408
709  408
710  422
711  399
712  442
713  410
714  385
715  403
716  409
717  409
718  420
719  417
720  446
721  419
722  432
723  405
724  399
725  447
726  460
727  433
728  403
729  409
730  428
731  434
732  444
733  428
734  436
735  399
736  437
737  445
738  418
739  411
740  395
741  427
742  422
743  412
744  416
745  465
746  438
747  433
748  411
749  417
750  414
751  411
752  419
753  414
754  392
755  448
756  431
757  414
758  409
759  394
760  417
761  413
762  421
763  426
764  417
765  388
766  422
767  407
768  397
769  450
770  416
771  418
772  419
773  381
774  381
775  427
776  396
777  434
778  409
779  403
780  411
781  413
782  405
783  410
784  453
785  420
786  414
787  421
788  426
789  411
790  389
791  389
792  408
793  409
794  397
795  440
796  399
797  433
798  432
799  428
800  392
801  443
802  423
803  425
804  382
805  384
806  412
807  404
808  414
809  418
810  394
811  443
812  435
813  412
814  443
815  427
816  398
817  413
818  424
819  401
820  418
821  405
822  396
823  439
824  402
825  389
826  372
827  397
828  394
829  378
830  399
831  440
832  360
833  380
834  433
835  386
836  386
837  403
838  413
839  420
840  397
841  387
842  406
843  403
844  399
845  391
846  396
847  404
848  416
849  406
850  376
851  377
852  430
853  419
854  419
855  438
856  390
857  448
858  374
859  398
860  432
861  428
862  442
863  422
864  421
865  409
866  417
867  379
868  428
869  398
870  390
871  421
872  425
873  415
874  405
875  381
876  374
877  417
878  398
879  396
880  455
881  388
882  389
883  371
884  367
885  383
886  349
887  412
888  403
889  364
890  415
891  383
892  370
893  422
894  381
895  414
896  368
897  422
898  388
899  431
900  387
901  377
902  420
903  408
904  400
905  396
906  388
907  395
908  426
909  416
910  356
911  403
912  373
913  418
914  410
915  377
916  435
917  397
918  380
919  410
920  487
921  413
922  407
923  394
924  409
925  407
926  401
927  433
928  409
929  440
930  418
931  418
932  420
933  393
934  414
935  390
936  393
937  420
938  401
939  395
940  388
941  414
942  420
943  404
944  423
945  438
946  382
947  394
948  391
949  358
950  447
951  357
952  366
953  386
954  400
955  395
956  394
957  382
958  427
959  388
960  375
961  402
962  414
963  425
964  416
965  385
966  411
967  423
968  424
969  387
970  388
971  390
972  366
973  404
974  411
975  387
976  397
977  426
978  397
979  398
980  379
981  381
982  414
983  401
984  412
985  387
986  420
987  350
988  381
989  403
990  424
991  422
992  416
993  414
994  384
995  403
996  402
997  424
998  369
999  420
1000  426
1001  433
1002  410
1003  381
1004  422
1005  384
1006  393
1007  369
1008  371
1009  389
1010  421
1011  393
1012  447
1013  384
1014  403
1015  378
1016  418
1017  404
1018  423
1019  410
1020  401
1021  417
1022  402
1023  415
1024  436
1025  379
1026  381
1027  422
1028  368
1029  429
1030  404
1031  414
1032  406
1033  397
1034  386
1035  390
1036  387
1037  388
1038  412
1039  420
1040  375
1041  388
1042  403
1043  403
1044  403
1045  400
1046  431
1047  420
1048  386
1049  375
1050  396
1051  409
1052  401
1053  429
1054  418
1055  420
1056  418
1057  390
1058  394
1059  414
1060  371
1061  412
1062  390
1063  394
1064  441
1065  420
1066  379
1067  409
1068  407
1069  388
1070  406
1071  395
1072  385
1073  402
1074  446
1075  415
1076  406
1077  416
1078  402
1079  401
1080  393
1081  437
1082  434
1083  447
1084  354
1085  394
1086  399
1087  350
1088  423
1089  413
1090  395
1091  426
1092  379
1093  389
1094  406
1095  393
1096  390
1097  389
1098  392
1099  396
1100  386
1101  391
1102  402
1103  406
1104  433
1105  411
1106  388
1107  387
1108  393
1109  421
1110  375
1111  396
1112  398
1113  372
1114  412
1115  397
1116  402
1117  411
1118  380
1119  412
1120  405
1121  394
1122  411
1123  399
1124  391
1125  391
1126  374
1127  414
1128  392
1129  416
1130  423
1131  414
1132  395
1133  419
1134  405
1135  415
1136  405
1137  388
1138  415
1139  402
1140  394
1141  398
1142  401
1143  391
1144  394
1145  412
1146  391
1147  415
1148  423
1149  427
1150  422
1151  388
1152  399
1153  420
1154  419
1155  416
1156  407
1157  387
1158  396
1159  379
1160  433
1161  414
1162  383
1163  385
1164  389
1165  398
1166  415
1167  367
1168  395
1169  403
1170  440
1171  412
1172  426
1173  402
1174  399
1175  412
1176  407
1177  405
1178  410
1179  399
1180  385
1181  390
1182  421
1183  427
1184  427
1185  399
1186  392
1187  395
1188  436
1189  426
1190  412
1191  375
1192  422
1193  437
1194  379
1195  391
1196  384
1197  426
1198  438
1199  441
1200  390
1201  400
1202  400
1203  378
1204  373
1205  391
1206  422
1207  402
1208  422
1209  404
1210  422
1211  432
1212  403
1213  420
1214  371
1215  401
1216  400
1217  415
1218  386
1219  423
1220  431
1221  400
1222  428
1223  404
1224  430
1225  424
1226  403
1227  443
1228  423
1229  446
1230  389
1231  381
1232  413
1233  407
1234  382
1235  428
1236  393
1237  416
1238  432
1239  410
1240  391
1241  418
1242  385
1243  423
1244  403
1245  401
1246  436
1247  441
1248  397
1249  434
1250  402
1251  444
1252  434
1253  426
1254  414
1255  416
1256  400
1257  433
1258  446
1259  429
1260  435
1261  394
1262  437
1263  419
1264  426
1265  402
1266  393
1267  385
1268  399
1269  417
1270  413
1271  386
1272  425
1273  437
1274  370
1275  415
1276  386
1277  370
1278  402
1279  423
1280  407
1281  405
1282  436
1283  408
1284  416
1285  401
1286  402
1287  410
1288  416
1289  411
1290  427
1291  424
1292  411
1293  469
1294  458
1295  468
1296  397
1297  414
1298  396
1299  401
1300  398
1301  431
1302  440
1303  413
1304  411
1305  416
1306  418
1307  388
1308  415
1309  434
1310  379
1311  415
1312  422
1313  415
1314  378
1315  443
1316  400
1317  415
1318  435
1319  424
1320  369
1321  398
1322  455
1323  378
1324  414
1325  403
1326  460
1327  393
1328  408
1329  379
1330  430
1331  414
1332  415
1333  395
1334  440
1335  432
1336  430
1337  398
1338  422
1339  412
1340  444
1341  405
1342  405
1343  394
1344  403
1345  373
1346  433
1347  452
1348  396
1349  431
1350  431
1351  412
1352  425
1353  431
1354  423
1355  403
1356  405
1357  436
1358  423
1359  414
1360  450
1361  451
1362  435
1363  438
1364  375
1365  402
1366  404
1367  421
1368  452
1369  472
1370  429
1371  393
1372  432
1373  436
1374  382
1375  419
1376  433
1377  403
1378  426
1379  379
1380  381
1381  418
1382  416
1383  377
1384  433
1385  400
1386  455
1387  434
1388  411
1389  416
1390  407
1391  416
1392  438
1393  428
1394  431
1395  458
1396  427
1397  438
1398  425
1399  424
1400  410
1401  439
1402  398
1403  420
1404  430
1405  445
1406  419
1407  399
1408  416
1409  404
1410  416
1411  426
1412  399
1413  420
1414  400
1415  429
1416  384
1417  392
1418  407
1419  431
1420  425
1421  423
1422  435
1423  371
1424  404
1425  423
1426  414
1427  426
1428  423
1429  425
1430  427
1431  426
1432  424
1433  392
1434  410
1435  422
1436  399
1437  407
1438  396
1439  448
1440  389
1441  437
1442  446
1443  417
1444  415
1445  438
1446  436
1447  430
1448  397
1449  409
1450  432
1451  446
1452  392
1453  400
1454  444
1455  448
1456  420
1457  391
1458  379
1459  437
1460  408
1461  412
1462  401
1463  443
1464  413
1465  418
1466  416
1467  434
1468  394
1469  393
1470  399
1471  424
1472  390
1473  407
1474  418
1475  389
1476  432
1477  442
1478  444
1479  415
1480  396
1481  384
1482  407
1483  414
1484  402
1485  403
1486  391
1487  399
1488  394
1489  428
1490  419
1491  393
1492  453
1493  417
1494  411
1495  416
1496  406
1497  420
1498  408
1499  434
1500  413
1501  440
1502  421
1503  395
1504  420
1505  399
1506  415
1507  411
1508  397
1509  369
1510  376
1511  423
1512  417
1513  399
1514  423
1515  419
1516  388
1517  387
1518  428
1519  408
1520  398
1521  408
1522  394
1523  405
1524  447
1525  403
1526  392
1527  422
1528  397
1529  448
1530  407
1531  416
1532  397
1533  419
1534  390
1535  403
1536  408
1537  414
1538  392
1539  382
1540  416
1541  397
1542  400
1543  408
1544  400
1545  410
1546  406
1547  439
1548  374
1549  399
1550  434
1551  406
1552  430
1553  424
1554  412
1555  392
1556  446
1557  403
1558  415
1559  427
1560  408
1561  442
1562  399
1563  408
1564  379
1565  413
1566  394
1567  441
1568  387
1569  385
1570  436
1571  434
1572  403
1573  396
1574  429
1575  422
1576  384
1577  409
1578  407
1579  430
1580  477
1581  382
1582  469
1583  432
1584  399
1585  408
1586  403
1587  431
1588  445
1589  386
1590  427
1591  408
1592  409
1593  401
1594  409
1595  419
1596  403
1597  413
1598  418
1599  421
1600  419
1601  418
1602  425
1603  434
1604  407
1605  410
1606  431
1607  434
1608  378
1609  396
1610  422
1611  453
1612  394
1613  463
1614  406
1615  412
1616  422
1617  412
1618  417
1619  398
1620  432
1621  421
1622  442
1623  403
1624  411
1625  426
1626  396
1627  408
1628  432
1629  383
1630  400
1631  377
1632  387
1633  436
1634  433
1635  437
1636  379
1637  435
1638  385
1639  386
1640  366
1641  384
1642  393
1643  448
1644  404
1645  416
1646  420
1647  438
1648  428
1649  391
1650  413
1651  413
1652  423
1653  406
1654  408
1655  396
1656  435
1657  409
1658  390
1659  407
1660  429
1661  415
1662  406
1663  390
1664  396
1665  398
1666  377
1667  449
1668  403
1669  411
1670  424
1671  419
1672  392
1673  389
1674  378
1675  395
1676  415
1677  384
1678  431
1679  380
1680  405
1681  411
1682  417
1683  400
1684  417
1685  444
1686  439
1687  440
1688  446
1689  414
1690  417
1691  423
1692  425
1693  447
1694  392
1695  409
1696  403
1697  407
1698  403
1699  372
1700  392
1701  395
1702  424
1703  395
1704  412
1705  401
1706  399
1707  400
1708  440
1709  406
1710  398
1711  376
1712  399
1713  399
1714  394
1715  380
1716  397
1717  391
1718  434
1719  416
1720  378
1721  413
1722  423
1723  438
1724  446
1725  421
1726  430
1727  410
1728  403
1729  361
1730  419
1731  447
1732  400
1733  394
1734  400
1735  396
1736  407
1737  430
1738  370
1739  423
1740  397
1741  402
1742  442
1743  427
1744  418
1745  368
1746  418
1747  428
1748  426
1749  402
1750  415
1751  422
1752  421
1753  413
1754  427
1755  406
1756  442
1757  429
1758  407
1759  451
1760  403
1761  402
1762  402
1763  430
1764  442
1765  415
1766  415
1767  396
1768  431
1769  451
1770  416
1771  404
1772  408
1773  347
1774  421
1775  403
1776  423
1777  438
1778  377
1779  419
1780  421
1781  416
1782  373
1783  405
1784  373
1785  399
1786  392
1787  379
1788  424
1789  411
1790  413
1791  400
1792  383
1793  395
1794  406
1795  405
1796  394
1797  401
1798  392
1799  377
1800  394
1801  376
1802  370
1803  431
1804  388
1805  431
1806  380
1807  399
1808  383
1809  405
1810  411
1811  416
1812  416
1813  391
1814  384
1815  432
1816  383
1817  419
1818  402
1819  427
1820  401
1821  422
1822  368
1823  422
1824  437
1825  389
1826  384
1827  394
1828  389
1829  400
1830  450
1831  429
1832  455
1833  378
1834  399
1835  395
1836  377
1837  420
1838  403
1839  426
1840  440
1841  410
1842  402
1843  375
1844  393
1845  384
1846  388
1847  410
1848  409
1849  384
1850  394
1851  400
1852  385
1853  390
1854  388
1855  383
1856  385
1857  386
1858  386
1859  419
1860  393
1861  425
1862  410
1863  406
1864  362
1865  397
1866  377
1867  372
1868  441
1869  403
1870  411
1871  387
1872  431
1873  409
1874  355
1875  455
1876  399
1877  396
1878  403
1879  393
1880  401
1881  444
1882  408
1883  395
1884  402
1885  393
1886  414
1887  358
1888  423
1889  406
1890  341
1891  393
1892  433
1893  364
1894  386
1895  381
1896  409
1897  415
1898  397
1899  412
1900  421
1901  382
1902  382
1903  377
1904  410
1905  374
1906  398
1907  387
1908  396
1909  411
1910  410
1911  409
1912  391
1913  401
1914  408
1915  418
1916  397
1917  383
1918  390
1919  387
1920  424
1921  405
1922  391
1923  422
1924  420
1925  408
1926  405
1927  431
1928  398
1929  443
1930  410
1931  426
1932  410
1933  461
1934  369
1935  448
1936  403
1937  430
1938  385
1939  407
1940  411
1941  430
1942  399
1943  391
1944  375
1945  371
1946  357
1947  396
1948  380
1949  408
1950  376
1951  375
1952  390
1953  402
1954  398
1955  418
1956  423
1957  378
1958  399
1959  403
1960  408
1961  410
1962  395
1963  363
1964  395
1965  399
1966  402
1967  425
1968  403
1969  387
1970  449
1971  431
1972  397
1973  381
1974  388
1975  391
1976  416
1977  457
1978  423
1979  420
1980  418
1981  379
1982  390
1983  401
1984  444
1985  360
1986  420
1987  428
1988  360
1989  426
1990  435
1991  420
1992  401
1993  446
1994  425
1995  422
1996  435
1997  406
1998  408
1999  398
2000  450
2001  408
2002  435
2003  400
2004  399
2005  389
2006  428
2007  400
2008  413
2009  440
2010  391
2011  407
2012  390
2013  403
2014  381
2015  399
2016  410
2017  386
2018  402
2019  430
2020  413
2021  398
2022  458
2023  403
2024  448
2025  422
2026  400
2027  403
2028  406
2029  395
2030  390
2031  406
2032  399
2033  426
2034  445
2035  412
2036  385
2037  420
2038  419
2039  424
2040  370
2041  430
2042  391
2043  422
2044  421
2045  409
2046  414
2047  419
2048  424
2049  388
2050  410
2051  403
2052  430
2053  407
2054  390
2055  420
2056  417
2057  387
2058  436
2059  387
2060  453
2061  403
2062  381
2063  416
2064  432
2065  393
2066  376
2067  424
2068  383
2069  414
2070  406
2071  392
2072  403
2073  395
2074  409
2075  434
2076  403
2077  406
2078  449
2079  403
2080  396
2081  356
2082  417
2083  413
2084  451
2085  399
2086  426
2087  397
2088  429
2089  404
2090  427
2091  359
2092  413
2093  385
2094  411
2095  395
2096  420
2097  441
2098  413
2099  450
2100  400
2101  438
2102  399
2103  400
2104  410
2105  413
2106  417
2107  417
2108  410
2109  413
2110  457
2111  433
2112  391
2113  421
2114  381
2115  464
2116  466
2117  412
2118  443
2119  425
2120  409
2121  376
2122  432
2123  394
2124  448
2125  437
2126  426
2127  384
2128  426
2129  466
2130  416
2131  433
2132  438
2133  398
2134  436
2135  363
2136  412
2137  417
2138  426
2139  458
2140  415
2141  401
2142  444
2143  388
2144  377
2145  403
2146  397
2147  432
2148  459
2149  400
2150  423
2151  394
2152  393
2153  404
2154  400
2155  437
2156  450
2157  398
2158  447
2159  426
2160  410
2161  409
2162  386
2163  401
2164  388
2165  431
2166  412
2167  424
2168  368
2169  446
2170  460
2171  408
2172  430
2173  438
2174  396
2175  420
2176  423
2177  402
2178  437
2179  441
2180  403
2181  414
2182  398
2183  407
2184  418
2185  426
2186  408
2187  429
2188  437
2189  442
2190  436
2191  403
2192  393
2193  449
2194  416
2195  422
2196  457
2197  366
2198  425
2199  427
2200  420
2201  444
2202  404
2203  418
2204  410
2205  431
2206  399
2207  419
2208  425
2209  415
2210  443
2211  405
2212  458
2213  425
2214  434
2215  407
2216  410
2217  410
2218  392
2219  415
2220  411
2221  436
2222  396
2223  397
2224  409
2225  412
2226  437
2227  382
2228  403
2229  411
2230  405
2231  432
2232  416
2233  431
2234  408
2235  417
2236  411
2237  400
2238  410
2239  408
2240  414
2241  439
2242  404
2243  379
2244  427
2245  388
2246  406
2247  409
2248  415
2249  396
2250  422
2251  443
2252  409
2253  398
2254  379
2255  422
2256  431
2257  424
2258  427
2259  419
2260  437
2261  433
2262  383
2263  402
2264  463
2265  429
2266  433
2267  409
2268  428
2269  402
2270  400
2271  415
2272  431
2273  413
2274  416
2275  401
2276  425
2277  397
2278  395
2279  409
2280  380
2281  400
2282  398
2283  406
2284  384
2285  435
2286  386
2287  400
2288  412
2289  417
2290  399
2291  412
2292  412
2293  369
2294  430
2295  397
2296  402
2297  420
2298  399
2299  415
2300  405
2301  440
2302  404
2303  389
2304  424
2305  393
2306  441
2307  431
2308  371
2309  397
2310  398
2311  447
2312  426
2313  411
2314  436
2315  373
2316  409
2317  454
2318  438
2319  403
2320  399
2321  384
2322  440
2323  430
2324  355
2325  464
2326  399
2327  405
2328  388
2329  443
2330  468
2331  374
2332  414
2333  454
2334  437
2335  419
2336  391
2337  415
2338  398
2339  393
2340  411
2341  419
2342  405
2343  422
2344  408
2345  384
2346  410
2347  395
2348  382
2349  401
2350  430
2351  423
2352  426
2353  416
2354  448
2355  419
2356  416
2357  412
2358  404
2359  392
2360  421
2361  416
2362  420
2363  412
2364  411
2365  404
2366  464
2367  398
2368  427
2369  420
2370  424
2371  432
2372  375
2373  408
2374  428
2375  424
2376  392
2377  424
2378  411
2379  400
2380  391
2381  421
2382  429
2383  432
2384  393
2385  420
2386  398
2387  396
2388  411
2389  447
2390  428
2391  420
2392  412
2393  408
2394  437
2395  387
2396  369
2397  403
2398  401
2399  430
2400  437
2401  428
2402  405
2403  381
2404  391
2405  397
2406  412
2407  409
2408  416
2409  400
2410  392
2411  426
2412  424
2413  388
2414  402
2415  411
2416  433
2417  379
2418  410
2419  434
2420  418
2421  398
2422  408
2423  433
2424  433
2425  420
2426  407
2427  438
2428  405
2429  411
2430  396
2431  425
2432  417
2433  413
2434  410
2435  420
2436  379
2437  400
2438  370
2439  432
2440  441
2441  406
2442  447
2443  407
2444  466
2445  415
2446  442
2447  410
2448  438
2449  417
2450  421
2451  445
2452  430
2453  428
2454  448
2455  415
2456  413
2457  395
2458  390
2459  453
2460  403
2461  431
2462  404
2463  435
2464  447
2465  455
2466  423
2467  404
2468  400
2469  404
2470  435
2471  388
2472  428
2473  395
2474  414
2475  425
2476  385
2477  442
2478  384
2479  456
2480  407
2481  424
2482  404
2483  407
2484  418
2485  423
2486  399
2487  388
2488  419
2489  426
2490  435
2491  414
2492  447
2493  402
2494  397
2495  416
2496  424
2497  389
2498  420
2499  394
2500  413
2501  399
2502  411
2503  417
2504  396
2505  415
2506  406
2507  424
2508  410
2509  446
2510  406
2511  418
2512  430
2513  421
2514  370
2515  452
2516  418
2517  393
2518  418
2519  400
2520  408
2521  439
2522  434
2523  403
2524  391
2525  394
2526  381
2527  420
2528  367
2529  407
2530  359
2531  408
2532  404
2533  435
2534  407
2535  403
2536  413
2537  409
2538  403
2539  396
2540  414
2541  413
2542  416
2543  395
2544  395
2545  438
2546  402
2547  403
2548  388
2549  459
2550  409
2551  379
2552  404
2553  410
2554  367
2555  422
2556  389
2557  403
2558  402
2559  398
2560  428
2561  389
2562  409
2563  419
2564  414
2565  406
2566  408
2567  375
2568  416
2569  423
2570  410
2571  416
2572  445
2573  387
2574  418
2575  395
2576  422
2577  407
2578  388
2579  406
2580  399
2581  399
2582  390
2583  395
2584  423
2585  401
2586  399
2587  413
2588  384
2589  411
2590  434
2591  412
2592  397
2593  419
2594  438
2595  410
2596  416
2597  382
2598  385
2599  435
2600  395
2601  419
2602  412
2603  399
2604  389
2605  389
2606  426
2607  437
2608  407
2609  436
2610  424
2611  441
2612  381
2613  400
2614  415
2615  421
2616  369
2617  426
2618  373
2619  380
2620  392
2621  379
2622  383
2623  420
2624  380
2625  388
2626  448
2627  397
2628  385
2629  414
2630  363
2631  393
2632  355
2633  402
2634  412
2635  414
2636  403
2637  448
2638  410
2639  416
2640  389
2641  396
2642  385
2643  428
2644  409
2645  417
2646  404
2647  384
2648  421
2649  378
2650  405
2651  424
2652  392
2653  415
2654  389
2655  434
2656  382
2657  366
2658  381
2659  383
2660  384
2661  400
2662  417
2663  384
2664  373
2665  398
2666  423
2667  397
2668  381
2669  410
2670  433
2671  411
2672  416
2673  456
2674  415
2675  373
2676  419
2677  422
2678  417
2679  404
2680  395
2681  389
2682  341
2683  374
2684  378
2685  387
2686  429
2687  392
2688  403
2689  382
2690  392
2691  435
2692  384
2693  399
2694  383
2695  436
2696  406
2697  415
2698  436
2699  398
2700  401
2701  398
2702  392
2703  428
2704  416
2705  376
2706  376
2707  431
2708  414
2709  425
2710  395
2711  437
2712  398
2713  440
2714  407
2715  354
2716  400
2717  439
2718  386
2719  393
2720  437
2721  423
2722  413
2723  374
2724  397
2725  415
2726  394
2727  426
2728  385
2729  366
2730  386
2731  442
2732  415
2733  403
2734  393
2735  416
2736  356
2737  406
2738  432
2739  388
2740  413
2741  379
2742  407
2743  398
2744  411
2745  473
2746  374
2747  385
2748  414
2749  389
2750  397
2751  407
2752  419
2753  395
2754  420
2755  406
2756  384
2757  408
2758  383
2759  405
2760  368
2761  403
2762  421
2763  405
2764  418
2765  423
2766  422
2767  378
2768  417
2769  393
2770  400
2771  387
2772  404
2773  396
2774  398
2775  390
2776  391
2777  405
2778  366
2779  400
2780  421
2781  386
2782  383
2783  393
2784  390
2785  420
2786  384
2787  406
2788  357
2789  368
2790  402
2791  357
2792  387
2793  400
2794  437
2795  385
2796  395
2797  398
2798  378
2799  425
2800  424
2801  394
2802  458
2803  418
2804  365
2805  402
2806  384
2807  400
2808  413
2809  394
2810  404
2811  392
2812  381
2813  423
2814  395
2815  413
2816  415
2817  388
2818  417
2819  410
2820  412
2821  387
2822  415
2823  411
2824  426
2825  419
2826  414
2827  461
2828  407
2829  403
2830  398
2831  426
2832  433
2833  378
2834  368
2835  386
2836  431
2837  385
2838  391
2839  398
2840  422
2841  416
2842  423
2843  422
2844  402
2845  394
2846  388
2847  410
2848  416
2849  397
2850  407
2851  416
2852  383
2853  415
2854  361
2855  401
2856  443
2857  394
2858  404
2859  437
2860  395
2861  402
2862  431
2863  389
2864  400
2865  409
2866  451
2867  423
2868  382
2869  383
2870  439
2871  389
2872  414
2873  414
2874  404
2875  389
2876  419
2877  411
2878  411
2879  434
2880  417
2881  415
2882  386
2883  429
2884  391
2885  360
2886  415
2887  419
2888  423
2889  398
2890  415
2891  406
2892  393
2893  425
2894  401
2895  392
2896  407
2897  415
2898  395
2899  378
2900  405
2901  419
2902  414
2903  434
2904  423
2905  426
2906  364
2907  360
2908  427
2909  428
2910  387
2911  408
2912  421
2913  408
2914  412
2915  377
2916  381
2917  391
2918  417
2919  420
2920  429
2921  403
2922  397
2923  411
2924  404
2925  391
2926  404
2927  396
2928  389
2929  449
2930  428
2931  433
2932  392
2933  390
2934  386
2935  436
2936  392
2937  427
2938  403
2939  459
2940  386
2941  417
2942  400
2943  433
2944  426
2945  389
2946  428
2947  405
2948  455
2949  430
2950  450
2951  450
2952  442
2953  390
2954  412
2955  408
2956  435
2957  407
2958  429
2959  401
2960  473
2961  399
2962  409
2963  427
2964  431
2965  409
2966  422
2967  376
2968  395
2969  345
2970  454
2971  423
2972  400
2973  426
2974  406
2975  418
2976  439
2977  381
2978  381
2979  427
2980  418
2981  434
2982  418
2983  405
2984  397
2985  418
2986  418
2987  438
2988  403
2989  391
2990  428
2991  394
2992  411
2993  406
2994  403
2995  382
2996  430
2997  413
2998  440
2999  432
3000  412
3001  413
3002  439
3003  407
3004  437
3005  400
3006  443
3007  386
3008  401
3009  443
3010  415
3011  435
3012  391
3013  429
3014  423
3015  410
3016  408
3017  425
3018  418
3019  429
3020  436
3021  407
3022  405
3023  441
3024  463
3025  377
3026  421
3027  407
3028  471
3029  408
3030  395
3031  399
3032  441
3033  408
3034  403
3035  398
3036  450
3037  430
3038  445
3039  412
3040  399
3041  430
3042  428
3043  418
3044  436
3045  467
3046  427
3047  451
3048  424
3049  427
3050  431
3051  430
3052  403
3053  415
3054  382
3055  415
3056  419
3057  422
3058  422
3059  408
3060  402
3061  381
3062  423
3063  421
3064  395
3065  433
3066  406
3067  415
3068  418
3069  411
3070  448
3071  365
3072  412
3073  400
3074  424
3075  442
3076  401
3077  426
3078  415
3079  379
3080  421
3081  400
3082  399
3083  393
3084  417
3085  408
3086  408
3087  416
3088  433
3089  394
3090  411
3091  399
3092  405
3093  403
3094  434
3095  392
3096  399
3097  437
3098  409
3099  421
3100  405
3101  407
3102  425
3103  443
3104  429
3105  420
3106  407
3107  430
3108  375
3109  444
3110  414
3111  387
3112  405
3113  440
3114  402
3115  407
3116  459
3117  379
3118  414
3119  423
3120  413
3121  416
3122  390
3123  387
3124  429
3125  447
3126  410
3127  425
3128  421
3129  388
3130  399
3131  380
3132  418
3133  416
3134  425
3135  439
3136  419
3137  395
3138  404
3139  404
3140  401
3141  423
3142  462
3143  417
3144  430
3145  427
3146  465
3147  434
3148  401
3149  399
3150  396
3151  444
3152  407
3153  390
3154  405
3155  395
3156  439
3157  424
3158  401
3159  438
3160  445
3161  388
3162  405
3163  438
3164  359
3165  412
3166  414
3167  431
3168  383
3169  408
3170  373
3171  411
3172  452
3173  443
3174  427
3175  392
3176  414
3177  392
3178  388
3179  418
3180  412
3181  399
3182  448
3183  411
3184  412
3185  423
3186  407
3187  418
3188  382
3189  462
3190  377
3191  404
3192  387
3193  416
3194  377
3195  386
3196  429
3197  408
3198  395
3199  419
3200  403
3201  416
3202  398
3203  398
3204  429
3205  392
3206  399
3207  405
3208  404
3209  419
3210  431
3211  430
3212  420
3213  391
3214  402
3215  388
3216  392
3217  427
3218  434
3219  414
3220  416
3221  439
3222  441
3223  401
3224  418
3225  395
3226  412
3227  439
3228  431
3229  433
3230  409
3231  403
3232  437
3233  386
3234  373
3235  406
3236  435
3237  426
3238  396
3239  406
3240  424
3241  454
3242  418
3243  423
3244  431
3245  406
3246  403
3247  400
3248  412
3249  399
3250  445
3251  414
3252  408
3253  415
3254  392
3255  402
3256  398
3257  388
3258  423
3259  418
3260  418
3261  417
3262  425
3263  409
3264  416
3265  442
3266  400
3267  465
3268  371
3269  440
3270  416
3271  399
3272  438
3273  405
3274  398
3275  424
3276  397
3277  402
3278  378
3279  400
3280  394
3281  403
3282  411
3283  384
3284  448
3285  438
3286  439
3287  424
3288  417
3289  433
3290  400
3291  407
3292  426
3293  397
3294  385
3295  412
3296  444
3297  410
3298  437
3299  401
3300  421
3301  410
3302  408
3303  415
3304  421
3305  430
3306  381
3307  383
3308  426
3309  395
3310  379
3311  443
3312  395
3313  406
3314  454
3315  401
3316  399
3317  425
3318  384
3319  443
3320  435
3321  411
3322  389
3323  446
3324  402
3325  425
3326  429
3327  426
3328  416
3329  414
3330  367
3331  384
3332  442
3333  439
3334  406
3335  424
3336  397
3337  446
3338  392
3339  429
3340  416
3341  378
3342  378
3343  404
3344  402
3345  436
3346  406
3347  377
3348  416
3349  417
3350  405
3351  405
3352  390
3353  431
3354  385
3355  402
3356  414
3357  399
3358  389
3359  400
3360  410
3361  409
3362  393
3363  392
3364  407
3365  395
3366  459
3367  454
3368  447
3369  413
3370  428
3371  439
3372  447
3373  451
3374  407
3375  428
3376  366
3377  439
3378  409
3379  411
3380  383
3381  406
3382  383
3383  399
3384  438
3385  374
3386  381
3387  428
3388  415
3389  391
3390  399
3391  429
3392  417
3393  418
3394  402
3395  408
3396  414
3397  419
3398  385
3399  392
3400  410
3401  410
3402  398
3403  405
3404  429
3405  435
3406  377
3407  397
3408  424
3409  395
3410  430
3411  395
3412  398
3413  443
3414  426
3415  441
3416  419
3417  385
3418  385
3419  386
3420  395
3421  429
3422  437
3423  370
3424  425
3425  443
3426  403
3427  412
3428  427
3429  445
3430  404
3431  424
3432  406
3433  397
3434  412
3435  409
3436  412
3437  405
3438  393
3439  411
3440  401
3441  416
3442  427
3443  396
3444  374
3445  471
3446  435
3447  344
3448  401
3449  400
3450  386
3451  430
3452  425
3453  406
3454  408
3455  388
3456  394
3457  395
3458  425
3459  428
3460  426
3461  405
3462  422
3463  438
3464  420
3465  405
3466  406
3467  389
3468  399
3469  394
3470  408
3471  395
3472  358
3473  366
3474  282
3475  247
3476  186
3477  148
3478  118
3479  77
3480  45
3481  22
3482  9
3483  3
3484  2
3485  1
3486  1
3487  0
3488  0
3489  0
3490  0
3491  0
3492  1
3493  0
3494  0
3495  0
3496  0
3497  0
3498  0
3499  0
3500  0
3501  0
3502  0
3503  0
3504  0
3505  0
3506  0
3507  0
3508  0
3509  0
3510  0
3511  0
3512  0
3513  0
3514  0
3515  0
3516  0
3517  0
3518  0
3519  0
3520  0
3521  0
3522  0
3523  0
3524  0
3525  0
3526  0
3527  0
3528  0
3529  0
3530  0
3531  0
3532  0
3533  0
3534  0
3535  0
3536  0
3537  0
3538  0
3539  0
3540  0
3541  0
3542  0
3543  0
3544  0
3545  0
3546  0
3547  0
3548  0
3549  0
3550  0
3551  0
3552  0
3553  0
3554  0
3555  0
3556  0
3557  0
3558  0
3559  0
3560  0
3561  0
3562  0
3563  0
3564  0
3565  0
3566  0
3567  0
3568  0
3569  0
3570  0
3571  0
3572  0
3573  0
3574  0
3575  0
3576  0
3577  0
3578  0
3579  0
3580  0
3581  0
3582  0
3583  0
3584  0
3585  0
3586  0
3587  0
3588  0
3589  0
3590  0
3591  0
3592  0
3593  0
3594  0
3595  0
3596  0
3597  0
3598  0
3599  0
3600  0
3601  0
3602  0
3603  0
3604  0
3605  0
3606  0
3607  0
3608  0
3609  0
3610  0
3611  0
3612  0
3613  0
3614  0
3615  0
3616  0
3617  0
3618  0
3619  0
3620  0
3621  0
3622  0
3623  0
3624  0
3625  0
3626  0
3627  0
3628  0
3629  0
3630  0
3631  0
3632  0
3633  0
3634  0
3635  0
3636  0
3637  0
3638  0
3639  0
3640  0
3641  0
3642  0
3643  0
3644  0
3645  0
3646  0
3647  0
3648  0
3649  0
3650  0
3651  0
3652  0
3653  0
3654  0
3655  0
3656  0
3657  0
3658  0
3659  0
3660  0
3661  0
3662  0
3663  0
3664  0
3665  0
3666  0
3667  0
3668  0
3669  0
3670  0
3671  0
3672  0
3673  0
3674  0
3675  0
3676  0
3677  0
3678  0
3679  0
3680  0
3681  0
3682  0
3683  0
3684  0
3685  0
3686  0
3687  0
3688  0
3689  0
3690  0
3691  0
3692  0
3693  0
3694  0
3695  0
3696  0
3697  0
3698  0
3699  0
3700  0
3701  0
3702  0
3703  0
3704  0
3705  0
3706  0
3707  0
3708  0
3709  0
3710  0
3711  0
3712  0
3713  0
3714  0
3715  0
3716  0
3717  0
3718  0
3719  0
3720  0
3721  0
3722  0
3723  0
3724  0
3725  0
3726  0
3727  0
3728  0
3729  0
3730  0
3731  0
3732  0
3733  0
3734  0
3735  0
3736  0
3737  0
3738  0
3739  0
3740  0
3741  0
3742  0
3743  0
3744  0
3745  0
3746  0
3747  0
3748  0
3749  0
3750  0
3751  0
3752  0
3753  0
3754  0
3755  0
3756  0
3757  0
3758  0
3759  0
3760  0
3761  0
3762  0
3763  0
3764  0
3765  0
3766  0
3767  0
3768  0
3769  0
3770  0
3771  0
3772  0
3773  0
3774  0
3775  0
3776  0
3777  0
3778  0
3779  0
3780  0
3781  0
3782  0
3783  0
3784  0
3785  0
3786  0
3787  0
3788  0
3789  0
3790  0
3791  0
3792  0
3793  0
3794  0
3795  0
3796  0
3797  0
3798  0
3799  0
3800  0
3801  0
3802  0
3803  0
3804  0
3805  0
3806  0
3807  0
3808  0
3809  0
3810  0
3811  0
3812  0
3813  0
3814  0
3815  0
3816  0
3817  0
3818  0
3819  0
3820  0
3821  0
3822  0
3823  0
3824  0
3825  0
3826  0
3827  0
3828  0
3829  0
3830  0
3831  0
3832  0
3833  0
3834  0
3835  0
3836  0
3837  0
3838  0
3839  0
3840  0
3841  0
3842  0
3843  0
3844  0
3845  0
3846  0
3847  0
3848  0
3849  0
3850  0
3851  0
3852  0
3853  0
3854  0
3855  0
3856  0
3857  0
3858  0
3859  0
3860  0
3861  0
3862  0
3863  0
3864  0
3865  0
3866  0
3867  0
3868  0
3869  0
3870  0
3871  0
3872  0
3873  0
3874  0
3875  0
3876  0
3877  0
3878  0
3879  0
3880  0
3881  0
3882  0
3883  0
3884  0
3885  0
3886  0
3887  0
3888  0
3889  0
3890  0
3891  0
3892  0
3893  0
3894  0
3895  0
3896  0
3897  0
3898  0
3899  0
3900  0
3901  0
3902  0
3903  0
3904  0
3905  0
3906  0
3907  0
3908  0
3909  0
3910  0
3911  0
3912  0
3913  0
3914  0
3915  0
3916  0
3917  0
3918  0
3919  0
3920  0
3921  0
3922  0
3923  0
3924  0
3925  0
3926  0
3927  0
3928  0
3929  0
3930  0
3931  0
3932  0
3933  0
3934  0
3935  0
3936  0
3937  0
3938  0
3939  0
3940  0
3941  0
3942  0
3943  0
3944  0
3945  0
3946  0
3947  0
3948  0
3949  0
3950  0
3951  0
3952  0
3953  0
3954  0
3955  0
3956  0
3957  0
3958  0
3959  0
3960  0
3961  0
3962  0
3963  0
3964  0
3965  0
3966  0
3967  0
3968  0
3969  0
3970  0
3971  0
3972  0
3973  0
3974  0
3975  0
3976  0
3977  0
3978  0
3979  0
3980  0
3981  0
3982  0
3983  0
3984  0
3985  0
3986  0
3987  0
3988  0
3989  0
3990  0
3991  0
3992  0
3993  0
3994  0
3995  0
3996  0
3997  0
3998  0
3999  0
4000  0
4001  0
4002  0
4003  0
4004  0
4005  0
4006  0
4007  0
4008  0
4009  0
4010  0
4011  0
4012  0
4013  0
4014  0
4015  0
4016  0
4017  0
4018  0
4019  0
4020  0
4021  0
4022  0
4023  0
4024  0
4025  0
4026  0
4027  0
4028  0
4029  0
4030  0
4031  0
4032  0
4033  0
4034  0
4035  0
4036  0
4037  0
4038  0
4039  0
4040  0
4041  0
4042  0
4043  0
4044  0
4045  0
4046  0
4047  0
4048  0
4049  0
4050  0
4051  0
4052  0
4053  0
4054  0
4055  0
4056  0
4057  0
4058  0
4059  0
4060  0
4061  0
4062  0
4063  0
4064  0
4065  0
4066  0
4067  0
4068  0
4069  0
4070  0
4071  0
4072  0
4073  0
4074  0
4075  0
4076  0
4077  0
4078  0
4079  0
4080  0
4081  0
4082  0
4083  0
4084  0
4085  0
4086  0
4087  0
4088  0
4089  0
4090  0
4091  0
4092  0
4093  0
4094  0
4095  0
