0  0
1  0
2  0
3  0
4  0
5  0
6  0
7  0
8  0
9  0
10  0
11  0
12  0
13  0
14  0
15  0
16  0
17  0
18  0
19  0
20  0
21  0
22  0
23  0
24  0
25  0
26  0
27  0
28  0
29  0
30  0
31  0
32  0
33  0
34  0
35  0
36  0
37  0
38  0
39  0
40  0
41  0
42  0
43  0
44  0
45  0
46  0
47  0
48  0
49  0
50  0
51  0
52  0
53  0
54  0
55  0
56  0
57  0
58  0
59  0
60  0
61  0
62  0
63  0
64  0
65  0
66  0
67  0
68  0
69  0
70  0
71  0
72  1
73  0
74  0
75  0
76  0
77  0
78  0
79  0
80  0
81  0
82  0
83  0
84  0
85  0
86  0
87  0
88  0
89  0
90  0
91  0
92  0
93  0
94  0
95  0
96  0
97  0
98  0
99  0
100  0
101  0
102  0
103  0
104  0
105  0
106  0
107  0
108  0
109  0
110  0
111  0
112  0
113  0
114  0
115  0
116  0
117  0
118  0
119  0
120  0
121  0
122  0
123  0
124  0
125  0
126  0
127  0
128  0
129  0
130  0
131  0
132  0
133  0
134  0
135  0
136  0
137  0
138  0
139  0
140  0
141  0
142  0
143  0
144  0
145  0
146  0
147  0
148  0
149  0
150  0
151  0
152  1
153  0
154  0
155  0
156  0
157  0
158  0
159  0
160  0
161  0
162  0
163  1
164  0
165  0
166  1
167  1
168  0
169  1
170  0
171  2
172  5
173  3
174  1
175  2
176  1
177  2
178  5
179  6
180  9
181  7
182  17
183  12
184  17
185  17
186  15
187  18
188  14
189  7
190  16
191  17
192  13
193  18
194  24
195  23
196  20
197  29
198  32
199  65
200  123
201  185
202  288
203  525
204  834
205  1141
206  1587
207  2090
208  2517
209  3023
210  3475
211  4015
212  4127
213  4513
214  4706
215  4594
216  4586
217  4788
218  4661
219  4733
220  4580
221  4609
222  4525
223  4414
224  4434
225  4387
226  4418
227  4419
228  4348
229  4250
230  4462
231  4423
232  4404
233  4379
234  4550
235  4388
236  4580
237  4496
238  4606
239  4535
240  4580
241  4638
242  4619
243  4471
244  4593
245  4508
246  4523
247  4564
248  4477
249  4399
250  4405
251  4295
252  4334
253  4306
254  4426
255  4292
256  4285
257  4100
258  4226
259  4191
260  4246
261  4155
262  4120
263  4005
264  4137
265  4066
266  4102
267  4074
268  3953
269  3886
270  4032
271  3911
272  3982
273  3814
274  3815
275  3818
276  3907
277  3756
278  3873
279  3726
280  3718
281  3752
282  3686
283  3732
284  3699
285  3726
286  3687
287  3677
288  3682
289  3573
290  3668
291  3738
292  3546
293  3639
294  3686
295  3635
296  3543
297  3616
298  3594
299  3476
300  3554
301  3518
302  3511
303  3429
304  3473
305  3412
306  3471
307  3483
308  3430
309  3409
310  3425
311  3440
312  3490
313  3365
314  3406
315  3414
316  3480
317  3375
318  3351
319  3360
320  3252
321  3286
322  3414
323  3390
324  3284
325  3296
326  3323
327  3205
328  3230
329  3333
330  3130
331  3266
332  3342
333  3313
334  3273
335  3257
336  3296
337  3200
338  3231
339  3306
340  3168
341  3240
342  3204
343  3106
344  3143
345  3295
346  3183
347  3181
348  3183
349  3197
350  3202
351  3167
352  3058
353  3171
354  3170
355  3099
356  3147
357  3210
358  3203
359  3157
360  3136
361  3130
362  3171
363  3217
364  3184
365  3072
366  3048
367  3084
368  3175
369  3135
370  3207
371  3091
372  3122
373  3148
374  3107
375  3189
376  3067
377  3158
378  3052
379  3058
380  3046
381  3091
382  3073
383  3127
384  3113
385  3108
386  3078
387  3055
388  3058
389  3033
390  2985
391  3045
392  3071
393  3009
394  3078
395  2978
396  2975
397  3110
398  3023
399  2998
400  3045
401  2964
402  2938
403  3060
404  3083
405  3062
406  3024
407  2965
408  2978
409  3022
410  3065
411  2877
412  2879
413  3009
414  2966
415  2962
416  3093
417  2979
418  2965
419  3074
420  2964
421  2983
422  2900
423  2928
424  2908
425  2861
426  2927
427  2911
428  2890
429  2929
430  2808
431  2892
432  3054
433  2946
434  2862
435  2926
436  2878
437  2966
438  2947
439  3011
440  2816
441  2812
442  2890
443  2841
444  2836
445  2843
446  2873
447  2950
448  2902
449  2914
450  2938
451  2823
452  2981
453  2927
454  2843
455  2932
456  2895
457  2756
458  2835
459  2867
460  2761
461  2772
462  2881
463  2722
464  2820
465  2815
466  2808
467  2652
468  2772
469  2746
470  2707
471  2749
472  2855
473  2743
474  2792
475  2855
476  2849
477  2789
478  2752
479  2856
480  2751
481  2803
482  2801
483  2721
484  2813
485  2783
486  2795
487  2767
488  2725
489  2699
490  2818
491  2779
492  2664
493  2630
494  2763
495  2710
496  2740
497  2795
498  2778
499  2706
500  2679
501  2721
502  2730
503  2733
504  2650
505  2669
506  2687
507  2752
508  2688
509  2636
510  2565
511  2738
512  2676
513  2626
514  2547
515  2686
516  2612
517  2551
518  2602
519  2566
520  2623
521  2564
522  2561
523  2514
524  2518
525  2529
526  2523
527  2406
528  2588
529  2528
530  2458
531  2536
532  2485
533  2496
534  2571
535  2456
536  2362
537  2462
538  2424
539  2445
540  2324
541  2390
542  2394
543  2382
544  2367
545  2341
546  2382
547  2381
548  2356
549  2298
550  2317
551  2326
552  2359
553  2284
554  2289
555  2254
556  2374
557  2211
558  2251
559  2202
560  2333
561  2311
562  2265
563  2218
564  2116
565  2211
566  2369
567  2171
568  2233
569  2176
570  2214
571  2117
572  2200
573  2222
574  2164
575  2123
576  2156
577  2087
578  2165
579  2058
580  2168
581  2146
582  2050
583  2168
584  2123
585  2145
586  2064
587  2036
588  1980
589  1955
590  2036
591  2014
592  2037
593  1982
594  2092
595  1951
596  1973
597  1960
598  1942
599  1988
600  1929
601  1911
602  1950
603  1988
604  1898
605  1894
606  1858
607  1938
608  1805
609  1889
610  1888
611  1861
612  1891
613  1827
614  1923
615  1788
616  1716
617  1874
618  1823
619  1780
620  1760
621  1766
622  1748
623  1718
624  1772
625  1707
626  1658
627  1579
628  1659
629  1625
630  1617
631  1586
632  1559
633  1526
634  1566
635  1454
636  1389
637  1519
638  1452
639  1431
640  1423
641  1398
642  1352
643  1334
644  1314
645  1243
646  1269
647  1258
648  1183
649  1243
650  1220
651  1179
652  1090
653  1141
654  1118
655  1051
656  1087
657  971
658  1039
659  1027
660  985
661  952
662  900
663  894
664  923
665  858
666  857
667  822
668  798
669  791
670  779
671  766
672  742
673  732
674  681
675  670
676  669
677  620
678  620
679  606
680  597
681  542
682  546
683  549
684  491
685  508
686  504
687  447
688  481
689  493
690  399
691  402
692  413
693  402
694  391
695  353
696  374
697  345
698  317
699  366
700  309
701  343
702  312
703  342
704  285
705  312
706  272
707  311
708  314
709  269
710  247
711  253
712  262
713  245
714  247
715  229
716  220
717  210
718  233
719  246
720  221
721  239
722  200
723  210
724  224
725  209
726  196
727  218
728  181
729  191
730  181
731  216
732  199
733  171
734  197
735  181
736  184
737  178
738  186
739  185
740  159
741  162
742  161
743  147
744  183
745  155
746  156
747  167
748  165
749  165
750  171
751  174
752  176
753  131
754  155
755  146
756  158
757  173
758  151
759  153
760  148
761  165
762  164
763  132
764  128
765  166
766  148
767  148
768  144
769  136
770  138
771  127
772  147
773  131
774  122
775  133
776  122
777  130
778  142
779  106
780  120
781  110
782  103
783  103
784  130
785  115
786  112
787  95
788  94
789  112
790  113
791  102
792  103
793  102
794  91
795  111
796  86
797  97
798  91
799  84
800  94
801  87
802  87
803  74
804  86
805  76
806  92
807  76
808  61
809  77
810  76
811  62
812  75
813  65
814  79
815  57
816  67
817  54
818  69
819  59
820  66
821  60
822  55
823  58
824  53
825  56
826  59
827  50
828  67
829  54
830  46
831  54
832  48
833  38
834  41
835  45
836  44
837  39
838  44
839  32
840  45
841  37
842  42
843  38
844  40
845  35
846  38
847  32
848  26
849  24
850  24
851  28
852  24
853  25
854  23
855  17
856  23
857  18
858  23
859  20
860  18
861  19
862  17
863  14
864  11
865  12
866  22
867  14
868  18
869  10
870  6
871  13
872  14
873  17
874  10
875  11
876  15
877  7
878  15
879  8
880  9
881  9
882  6
883  11
884  10
885  14
886  13
887  6
888  7
889  6
890  11
891  7
892  8
893  6
894  5
895  2
896  10
897  4
898  6
899  6
900  5
901  8
902  3
903  8
904  8
905  6
906  3
907  4
908  3
909  2
910  6
911  6
912  5
913  3
914  6
915  3
916  1
917  5
918  4
919  4
920  3
921  2
922  2
923  6
924  0
925  3
926  2
927  2
928  4
929  4
930  0
931  4
932  4
933  5
934  3
935  1
936  1
937  5
938  2
939  2
940  4
941  4
942  4
943  3
944  2
945  3
946  6
947  3
948  3
949  4
950  4
951  1
952  2
953  4
954  0
955  5
956  2
957  4
958  2
959  1
960  5
961  2
962  3
963  6
964  4
965  1
966  3
967  2
968  4
969  5
970  3
971  5
972  2
973  3
974  2
975  1
976  2
977  0
978  3
979  3
980  1
981  3
982  1
983  2
984  3
985  6
986  1
987  1
988  4
989  1
990  6
991  5
992  0
993  0
994  5
995  1
996  1
997  1
998  3
999  3
1000  5
1001  2
1002  1
1003  3
1004  3
1005  2
1006  2
1007  5
1008  0
1009  2
1010  3
1011  3
1012  2
1013  2
1014  2
1015  1
1016  5
1017  2
1018  1
1019  2
1020  2
1021  1
1022  2
1023  3
1024  1
1025  1
1026  0
1027  4
1028  2
1029  2
1030  1
1031  2
1032  3
1033  2
1034  2
1035  0
1036  2
1037  2
1038  0
1039  3
1040  1
1041  2
1042  1
1043  3
1044  1
1045  2
1046  2
1047  1
1048  2
1049  2
1050  1
1051  1
1052  3
1053  2
1054  2
1055  3
1056  1
1057  3
1058  0
1059  0
1060  1
1061  3
1062  5
1063  1
1064  0
1065  4
1066  2
1067  1
1068  2
1069  2
1070  0
1071  0
1072  3
1073  1
1074  3
1075  0
1076  0
1077  1
1078  1
1079  1
1080  3
1081  0
1082  0
1083  0
1084  2
1085  5
1086  1
1087  1
1088  0
1089  1
1090  1
1091  0
1092  1
1093  2
1094  1
1095  2
1096  2
1097  1
1098  0
1099  2
1100  1
1101  1
1102  0
1103  0
1104  1
1105  0
1106  1
1107  0
1108  1
1109  0
1110  1
1111  1
1112  0
1113  1
1114  0
1115  2
1116  1
1117  0
1118  0
1119  1
1120  0
1121  0
1122  0
1123  1
1124  0
1125  2
1126  3
1127  2
1128  2
1129  0
1130  2
1131  1
1132  0
1133  0
1134  2
1135  1
1136  0
1137  3
1138  2
1139  0
1140  1
1141  2
1142  0
1143  0
1144  1
1145  2
1146  1
1147  2
1148  0
1149  1
1150  0
1151  1
1152  0
1153  1
1154  1
1155  0
1156  1
1157  2
1158  0
1159  2
1160  0
1161  1
1162  0
1163  0
1164  2
1165  1
1166  2
1167  2
1168  0
1169  0
1170  2
1171  0
1172  0
1173  0
1174  0
1175  0
1176  0
1177  2
1178  2
1179  1
1180  2
1181  0
1182  0
1183  0
1184  0
1185  1
1186  0
1187  1
1188  0
1189  0
1190  1
1191  1
1192  0
1193  3
1194  0
1195  2
1196  0
1197  0
1198  1
1199  1
1200  0
1201  1
1202  1
1203  2
1204  2
1205  1
1206  3
1207  0
1208  0
1209  1
1210  1
1211  1
1212  0
1213  0
1214  0
1215  0
1216  1
1217  0
1218  0
1219  0
1220  2
1221  1
1222  0
1223  1
1224  2
1225  1
1226  0
1227  2
1228  1
1229  0
1230  0
1231  0
1232  1
1233  0
1234  1
1235  0
1236  1
1237  0
1238  2
1239  0
1240  0
1241  0
1242  0
1243  0
1244  2
1245  1
1246  0
1247  2
1248  0
1249  0
1250  0
1251  1
1252  0
1253  0
1254  1
1255  1
1256  1
1257  1
1258  0
1259  1
1260  0
1261  1
1262  0
1263  2
1264  0
1265  0
1266  1
1267  0
1268  0
1269  0
1270  1
1271  0
1272  1
1273  0
1274  2
1275  1
1276  0
1277  0
1278  0
1279  1
1280  0
1281  1
1282  0
1283  0
1284  0
1285  1
1286  0
1287  0
1288  1
1289  1
1290  2
1291  0
1292  1
1293  1
1294  1
1295  0
1296  0
1297  0
1298  0
1299  0
1300  1
1301  0
1302  0
1303  0
1304  0
1305  1
1306  0
1307  0
1308  1
1309  0
1310  1
1311  0
1312  1
1313  0
1314  0
1315  1
1316  0
1317  1
1318  0
1319  2
1320  0
1321  1
1322  0
1323  1
1324  1
1325  1
1326  0
1327  1
1328  1
1329  0
1330  1
1331  0
1332  0
1333  1
1334  0
1335  0
1336  0
1337  0
1338  0
1339  0
1340  0
1341  0
1342  0
1343  0
1344  0
1345  0
1346  2
1347  0
1348  0
1349  0
1350  0
1351  0
1352  0
1353  0
1354  0
1355  1
1356  0
1357  1
1358  1
1359  1
1360  0
1361  2
1362  0
1363  1
1364  1
1365  0
1366  0
1367  1
1368  0
1369  0
1370  0
1371  0
1372  1
1373  1
1374  1
1375  0
1376  1
1377  0
1378  1
1379  1
1380  0
1381  0
1382  0
1383  0
1384  1
1385  1
1386  0
1387  0
1388  0
1389  0
1390  0
1391  1
1392  0
1393  1
1394  0
1395  1
1396  1
1397  0
1398  0
1399  1
1400  1
1401  2
1402  0
1403  0
1404  0
1405  0
1406  0
1407  0
1408  0
1409  1
1410  0
1411  0
1412  0
1413  0
1414  1
1415  0
1416  0
1417  1
1418  1
1419  0
1420  0
1421  0
1422  1
1423  3
1424  0
1425  0
1426  0
1427  0
1428  0
1429  0
1430  0
1431  0
1432  0
1433  3
1434  1
1435  1
1436  0
1437  0
1438  0
1439  0
1440  2
1441  0
1442  0
1443  0
1444  0
1445  0
1446  0
1447  0
1448  1
1449  1
1450  1
1451  0
1452  0
1453  0
1454  0
1455  0
1456  0
1457  0
1458  0
1459  0
1460  1
1461  0
1462  0
1463  1
1464  1
1465  1
1466  1
1467  0
1468  1
1469  0
1470  0
1471  1
1472  1
1473  0
1474  0
1475  0
1476  0
1477  2
1478  1
1479  1
1480  0
1481  0
1482  0
1483  0
1484  0
1485  0
1486  0
1487  1
1488  0
1489  0
1490  1
1491  1
1492  0
1493  0
1494  1
1495  0
1496  0
1497  0
1498  1
1499  0
1500  0
1501  0
1502  0
1503  2
1504  0
1505  0
1506  0
1507  0
1508  1
1509  1
1510  1
1511  0
1512  0
1513  0
1514  0
1515  0
1516  1
1517  2
1518  1
1519  0
1520  0
1521  0
1522  0
1523  1
1524  0
1525  2
1526  1
1527  0
1528  0
1529  0
1530  0
1531  0
1532  0
1533  1
1534  0
1535  0
1536  0
1537  0
1538  1
1539  2
1540  0
1541  0
1542  0
1543  0
1544  0
1545  0
1546  1
1547  0
1548  0
1549  0
1550  0
1551  0
1552  2
1553  0
1554  0
1555  0
1556  1
1557  0
1558  0
1559  0
1560  0
1561  0
1562  1
1563  0
1564  3
1565  0
1566  0
1567  0
1568  0
1569  3
1570  1
1571  1
1572  0
1573  0
1574  2
1575  0
1576  1
1577  1
1578  0
1579  0
1580  1
1581  0
1582  1
1583  1
1584  2
1585  0
1586  0
1587  0
1588  1
1589  1
1590  1
1591  0
1592  3
1593  1
1594  1
1595  2
1596  0
1597  1
1598  1
1599  1
1600  0
1601  1
1602  2
1603  0
1604  0
1605  0
1606  1
1607  0
1608  0
1609  0
1610  0
1611  0
1612  1
1613  1
1614  0
1615  0
1616  0
1617  1
1618  0
1619  0
1620  0
1621  1
1622  0
1623  0
1624  0
1625  2
1626  0
1627  0
1628  0
1629  0
1630  0
1631  0
1632  0
1633  1
1634  1
1635  0
1636  0
1637  1
1638  0
1639  1
1640  0
1641  0
1642  0
1643  0
1644  1
1645  0
1646  0
1647  0
1648  0
1649  1
1650  0
1651  0
1652  0
1653  0
1654  0
1655  0
1656  1
1657  0
1658  0
1659  1
1660  0
1661  0
1662  2
1663  1
1664  0
1665  0
1666  0
1667  0
1668  0
1669  1
1670  0
1671  1
1672  0
1673  1
1674  1
1675  2
1676  1
1677  1
1678  1
1679  0
1680  1
1681  0
1682  0
1683  1
1684  2
1685  0
1686  0
1687  0
1688  0
1689  0
1690  1
1691  0
1692  3
1693  1
1694  0
1695  0
1696  0
1697  0
1698  0
1699  0
1700  0
1701  1
1702  0
1703  0
1704  1
1705  2
1706  0
1707  0
1708  0
1709  1
1710  0
1711  0
1712  0
1713  0
1714  0
1715  1
1716  1
1717  0
1718  1
1719  0
1720  0
1721  0
1722  0
1723  0
1724  0
1725  1
1726  2
1727  0
1728  0
1729  0
1730  1
1731  0
1732  1
1733  0
1734  1
1735  1
1736  2
1737  0
1738  0
1739  0
1740  1
1741  0
1742  2
1743  0
1744  0
1745  0
1746  0
1747  1
1748  2
1749  0
1750  0
1751  0
1752  0
1753  0
1754  1
1755  0
1756  0
1757  0
1758  1
1759  1
1760  0
1761  1
1762  1
1763  0
1764  0
1765  1
1766  0
1767  0
1768  0
1769  2
1770  1
1771  0
1772  0
1773  0
1774  0
1775  1
1776  2
1777  0
1778  1
1779  1
1780  0
1781  0
1782  0
1783  1
1784  1
1785  2
1786  0
1787  0
1788  0
1789  1
1790  0
1791  0
1792  0
1793  1
1794  2
1795  0
1796  1
1797  1
1798  0
1799  0
1800  1
1801  1
1802  1
1803  0
1804  1
1805  0
1806  0
1807  0
1808  1
1809  0
1810  2
1811  2
1812  1
1813  0
1814  1
1815  0
1816  0
1817  0
1818  2
1819  0
1820  0
1821  1
1822  0
1823  2
1824  0
1825  0
1826  2
1827  0
1828  0
1829  0
1830  0
1831  1
1832  1
1833  0
1834  3
1835  0
1836  1
1837  1
1838  0
1839  0
1840  0
1841  0
1842  0
1843  1
1844  0
1845  1
1846  0
1847  1
1848  1
1849  0
1850  0
1851  1
1852  0
1853  2
1854  0
1855  4
1856  1
1857  2
1858  0
1859  1
1860  2
1861  0
1862  0
1863  1
1864  0
1865  2
1866  0
1867  1
1868  0
1869  0
1870  0
1871  1
1872  2
1873  2
1874  0
1875  2
1876  0
1877  0
1878  0
1879  1
1880  0
1881  1
1882  0
1883  0
1884  1
1885  0
1886  0
1887  1
1888  1
1889  0
1890  0
1891  0
1892  0
1893  0
1894  1
1895  3
1896  0
1897  1
1898  0
1899  0
1900  0
1901  0
1902  1
1903  0
1904  1
1905  0
1906  0
1907  1
1908  0
1909  0
1910  1
1911  0
1912  0
1913  0
1914  0
1915  0
1916  1
1917  0
1918  0
1919  1
1920  0
1921  0
1922  0
1923  1
1924  0
1925  1
1926  0
1927  0
1928  0
1929  0
1930  0
1931  1
1932  0
1933  0
1934  0
1935  2
1936  1
1937  1
1938  0
1939  0
1940  1
1941  0
1942  0
1943  1
1944  0
1945  0
1946  1
1947  0
1948  1
1949  2
1950  1
1951  0
1952  0
1953  0
1954  0
1955  2
1956  1
1957  0
1958  0
1959  0
1960  1
1961  0
1962  2
1963  2
1964  0
1965  0
1966  0
1967  2
1968  1
1969  3
1970  1
1971  1
1972  1
1973  0
1974  1
1975  0
1976  1
1977  1
1978  0
1979  0
1980  1
1981  1
1982  1
1983  2
1984  2
1985  0
1986  1
1987  1
1988  0
1989  0
1990  0
1991  0
1992  0
1993  0
1994  0
1995  1
1996  0
1997  0
1998  0
1999  0
2000  0
2001  1
2002  0
2003  0
2004  0
2005  0
2006  1
2007  0
2008  3
2009  0
2010  0
2011  1
2012  1
2013  1
2014  0
2015  1
2016  2
2017  1
2018  0
2019  0
2020  1
2021  1
2022  0
2023  0
2024  0
2025  2
2026  0
2027  1
2028  0
2029  1
2030  2
2031  1
2032  0
2033  1
2034  0
2035  1
2036  0
2037  1
2038  0
2039  1
2040  1
2041  0
2042  0
2043  0
2044  2
2045  0
2046  0
2047  2
2048  1
2049  0
2050  1
2051  1
2052  2
2053  0
2054  1
2055  1
2056  1
2057  1
2058  0
2059  2
2060  0
2061  1
2062  0
2063  1
2064  0
2065  1
2066  1
2067  0
2068  1
2069  0
2070  0
2071  0
2072  0
2073  0
2074  1
2075  0
2076  0
2077  0
2078  1
2079  0
2080  0
2081  1
2082  0
2083  1
2084  3
2085  0
2086  1
2087  0
2088  0
2089  0
2090  0
2091  1
2092  1
2093  1
2094  0
2095  0
2096  0
2097  4
2098  1
2099  0
2100  0
2101  1
2102  0
2103  1
2104  0
2105  1
2106  0
2107  0
2108  0
2109  0
2110  0
2111  0
2112  2
2113  1
2114  2
2115  2
2116  0
2117  0
2118  0
2119  0
2120  0
2121  1
2122  0
2123  2
2124  1
2125  0
2126  0
2127  0
2128  1
2129  0
2130  0
2131  2
2132  0
2133  0
2134  0
2135  0
2136  1
2137  1
2138  1
2139  1
2140  0
2141  0
2142  1
2143  0
2144  0
2145  1
2146  0
2147  0
2148  0
2149  1
2150  0
2151  2
2152  0
2153  0
2154  0
2155  2
2156  0
2157  1
2158  0
2159  1
2160  0
2161  0
2162  1
2163  1
2164  1
2165  0
2166  0
2167  1
2168  0
2169  0
2170  2
2171  1
2172  1
2173  1
2174  2
2175  0
2176  1
2177  0
2178  1
2179  1
2180  1
2181  0
2182  1
2183  0
2184  0
2185  1
2186  0
2187  1
2188  1
2189  0
2190  1
2191  0
2192  1
2193  0
2194  0
2195  0
2196  2
2197  0
2198  0
2199  1
2200  0
2201  2
2202  1
2203  0
2204  0
2205  1
2206  1
2207  0
2208  0
2209  1
2210  2
2211  0
2212  0
2213  0
2214  0
2215  1
2216  0
2217  1
2218  0
2219  0
2220  1
2221  1
2222  0
2223  0
2224  0
2225  0
2226  1
2227  0
2228  0
2229  1
2230  1
2231  1
2232  0
2233  1
2234  0
2235  1
2236  0
2237  1
2238  0
2239  0
2240  1
2241  0
2242  1
2243  0
2244  0
2245  1
2246  0
2247  2
2248  0
2249  0
2250  0
2251  1
2252  0
2253  2
2254  0
2255  0
2256  0
2257  1
2258  0
2259  2
2260  1
2261  1
2262  0
2263  0
2264  2
2265  0
2266  1
2267  1
2268  1
2269  1
2270  0
2271  1
2272  0
2273  0
2274  0
2275  0
2276  0
2277  1
2278  0
2279  2
2280  0
2281  0
2282  0
2283  1
2284  0
2285  0
2286  1
2287  0
2288  0
2289  0
2290  1
2291  0
2292  1
2293  0
2294  0
2295  0
2296  1
2297  0
2298  1
2299  1
2300  0
2301  0
2302  1
2303  1
2304  0
2305  1
2306  0
2307  0
2308  0
2309  0
2310  0
2311  0
2312  2
2313  0
2314  0
2315  0
2316  0
2317  1
2318  0
2319  0
2320  0
2321  0
2322  0
2323  1
2324  0
2325  0
2326  0
2327  0
2328  0
2329  1
2330  1
2331  2
2332  1
2333  0
2334  0
2335  0
2336  1
2337  0
2338  1
2339  0
2340  0
2341  1
2342  0
2343  1
2344  0
2345  0
2346  0
2347  2
2348  1
2349  0
2350  0
2351  1
2352  0
2353  0
2354  0
2355  0
2356  0
2357  1
2358  0
2359  1
2360  0
2361  0
2362  0
2363  0
2364  0
2365  2
2366  0
2367  3
2368  1
2369  0
2370  1
2371  0
2372  0
2373  1
2374  1
2375  0
2376  0
2377  0
2378  0
2379  0
2380  0
2381  2
2382  0
2383  0
2384  0
2385  0
2386  2
2387  0
2388  0
2389  1
2390  1
2391  0
2392  0
2393  0
2394  0
2395  1
2396  1
2397  0
2398  1
2399  1
2400  0
2401  0
2402  0
2403  0
2404  1
2405  1
2406  0
2407  2
2408  1
2409  0
2410  0
2411  1
2412  2
2413  1
2414  0
2415  0
2416  2
2417  0
2418  0
2419  0
2420  1
2421  1
2422  1
2423  1
2424  0
2425  0
2426  0
2427  1
2428  1
2429  0
2430  0
2431  0
2432  0
2433  0
2434  0
2435  2
2436  0
2437  0
2438  1
2439  0
2440  0
2441  0
2442  0
2443  0
2444  0
2445  1
2446  0
2447  0
2448  2
2449  1
2450  0
2451  2
2452  1
2453  1
2454  0
2455  0
2456  0
2457  0
2458  0
2459  0
2460  0
2461  0
2462  2
2463  1
2464  0
2465  0
2466  0
2467  0
2468  0
2469  0
2470  1
2471  1
2472  3
2473  0
2474  0
2475  2
2476  0
2477  0
2478  2
2479  1
2480  0
2481  0
2482  1
2483  1
2484  1
2485  0
2486  0
2487  1
2488  1
2489  1
2490  0
2491  0
2492  0
2493  1
2494  0
2495  1
2496  0
2497  1
2498  0
2499  0
2500  0
2501  1
2502  1
2503  1
2504  1
2505  0
2506  2
2507  1
2508  0
2509  0
2510  1
2511  0
2512  1
2513  2
2514  0
2515  2
2516  0
2517  3
2518  1
2519  0
2520  0
2521  0
2522  1
2523  1
2524  0
2525  0
2526  1
2527  0
2528  1
2529  1
2530  4
2531  0
2532  0
2533  0
2534  0
2535  0
2536  0
2537  0
2538  0
2539  0
2540  0
2541  0
2542  0
2543  2
2544  0
2545  0
2546  1
2547  1
2548  0
2549  2
2550  1
2551  1
2552  0
2553  0
2554  0
2555  0
2556  1
2557  1
2558  0
2559  0
2560  1
2561  2
2562  1
2563  0
2564  0
2565  0
2566  1
2567  0
2568  0
2569  0
2570  1
2571  0
2572  0
2573  1
2574  0
2575  0
2576  1
2577  1
2578  0
2579  1
2580  0
2581  1
2582  2
2583  0
2584  4
2585  0
2586  1
2587  1
2588  0
2589  0
2590  0
2591  0
2592  0
2593  0
2594  0
2595  0
2596  2
2597  0
2598  0
2599  0
2600  0
2601  0
2602  1
2603  2
2604  0
2605  0
2606  0
2607  0
2608  0
2609  0
2610  0
2611  1
2612  0
2613  1
2614  0
2615  1
2616  0
2617  1
2618  0
2619  0
2620  0
2621  0
2622  0
2623  2
2624  0
2625  0
2626  0
2627  0
2628  1
2629  0
2630  0
2631  0
2632  0
2633  0
2634  0
2635  0
2636  0
2637  1
2638  0
2639  0
2640  0
2641  1
2642  1
2643  0
2644  0
2645  0
2646  0
2647  0
2648  0
2649  0
2650  0
2651  1
2652  2
2653  0
2654  0
2655  0
2656  0
2657  0
2658  0
2659  0
2660  0
2661  0
2662  0
2663  0
2664  1
2665  1
2666  1
2667  0
2668  0
2669  0
2670  0
2671  1
2672  0
2673  0
2674  0
2675  0
2676  0
2677  0
2678  0
2679  1
2680  0
2681  1
2682  0
2683  0
2684  2
2685  1
2686  1
2687  0
2688  0
2689  0
2690  0
2691  1
2692  1
2693  0
2694  0
2695  1
2696  1
2697  0
2698  0
2699  0
2700  0
2701  0
2702  0
2703  1
2704  1
2705  0
2706  0
2707  1
2708  0
2709  1
2710  0
2711  0
2712  0
2713  1
2714  0
2715  0
2716  0
2717  0
2718  0
2719  0
2720  1
2721  0
2722  0
2723  0
2724  0
2725  0
2726  0
2727  0
2728  0
2729  0
2730  0
2731  2
2732  0
2733  0
2734  1
2735  2
2736  1
2737  0
2738  0
2739  0
2740  0
2741  0
2742  0
2743  1
2744  0
2745  0
2746  0
2747  0
2748  0
2749  0
2750  0
2751  1
2752  0
2753  0
2754  0
2755  1
2756  1
2757  0
2758  0
2759  1
2760  0
2761  1
2762  0
2763  1
2764  1
2765  1
2766  0
2767  0
2768  1
2769  1
2770  2
2771  1
2772  0
2773  1
2774  0
2775  0
2776  0
2777  0
2778  0
2779  0
2780  3
2781  0
2782  0
2783  0
2784  1
2785  0
2786  1
2787  0
2788  1
2789  1
2790  0
2791  1
2792  1
2793  1
2794  0
2795  1
2796  0
2797  2
2798  2
2799  0
2800  1
2801  1
2802  1
2803  0
2804  0
2805  0
2806  0
2807  0
2808  0
2809  0
2810  0
2811  0
2812  0
2813  1
2814  0
2815  2
2816  2
2817  0
2818  0
2819  1
2820  0
2821  0
2822  0
2823  0
2824  0
2825  1
2826  1
2827  0
2828  0
2829  0
2830  0
2831  0
2832  0
2833  0
2834  1
2835  0
2836  0
2837  2
2838  0
2839  0
2840  0
2841  0
2842  1
2843  0
2844  1
2845  0
2846  2
2847  0
2848  0
2849  1
2850  0
2851  0
2852  1
2853  1
2854  1
2855  1
2856  1
2857  1
2858  4
2859  2
2860  0
2861  1
2862  1
2863  0
2864  0
2865  0
2866  0
2867  0
2868  0
2869  0
2870  0
2871  0
2872  1
2873  0
2874  1
2875  0
2876  3
2877  0
2878  2
2879  0
2880  1
2881  1
2882  0
2883  0
2884  0
2885  0
2886  0
2887  0
2888  0
2889  1
2890  1
2891  1
2892  1
2893  1
2894  0
2895  3
2896  0
2897  0
2898  0
2899  0
2900  0
2901  2
2902  0
2903  1
2904  2
2905  2
2906  0
2907  0
2908  0
2909  0
2910  0
2911  0
2912  0
2913  0
2914  1
2915  0
2916  0
2917  1
2918  0
2919  0
2920  0
2921  0
2922  0
2923  2
2924  1
2925  0
2926  1
2927  1
2928  0
2929  1
2930  0
2931  0
2932  2
2933  0
2934  0
2935  1
2936  4
2937  0
2938  1
2939  1
2940  1
2941  0
2942  0
2943  2
2944  0
2945  1
2946  1
2947  0
2948  1
2949  1
2950  0
2951  0
2952  0
2953  1
2954  2
2955  1
2956  0
2957  1
2958  0
2959  1
2960  0
2961  0
2962  0
2963  1
2964  0
2965  0
2966  0
2967  0
2968  0
2969  1
2970  0
2971  3
2972  0
2973  1
2974  0
2975  0
2976  0
2977  0
2978  1
2979  0
2980  0
2981  1
2982  1
2983  0
2984  1
2985  0
2986  0
2987  1
2988  3
2989  1
2990  0
2991  1
2992  0
2993  0
2994  1
2995  0
2996  0
2997  0
2998  0
2999  2
3000  0
3001  0
3002  0
3003  0
3004  0
3005  0
3006  0
3007  1
3008  0
3009  0
3010  0
3011  1
3012  1
3013  0
3014  0
3015  1
3016  0
3017  0
3018  1
3019  1
3020  0
3021  0
3022  1
3023  1
3024  1
3025  0
3026  0
3027  0
3028  4
3029  0
3030  1
3031  0
3032  0
3033  0
3034  0
3035  1
3036  2
3037  0
3038  2
3039  0
3040  0
3041  0
3042  1
3043  1
3044  0
3045  0
3046  0
3047  1
3048  1
3049  0
3050  0
3051  2
3052  1
3053  3
3054  1
3055  0
3056  1
3057  0
3058  1
3059  0
3060  0
3061  1
3062  1
3063  1
3064  1
3065  1
3066  0
3067  0
3068  1
3069  1
3070  0
3071  1
3072  1
3073  1
3074  0
3075  0
3076  0
3077  0
3078  1
3079  0
3080  0
3081  1
3082  0
3083  1
3084  0
3085  0
3086  0
3087  1
3088  0
3089  0
3090  0
3091  1
3092  0
3093  0
3094  0
3095  1
3096  0
3097  0
3098  2
3099  1
3100  1
3101  1
3102  0
3103  1
3104  0
3105  2
3106  0
3107  1
3108  2
3109  1
3110  2
3111  0
3112  1
3113  0
3114  0
3115  1
3116  0
3117  0
3118  0
3119  2
3120  0
3121  0
3122  0
3123  2
3124  1
3125  2
3126  1
3127  0
3128  0
3129  0
3130  0
3131  0
3132  0
3133  1
3134  0
3135  0
3136  0
3137  0
3138  1
3139  0
3140  0
3141  0
3142  0
3143  0
3144  2
3145  0
3146  0
3147  0
3148  1
3149  0
3150  0
3151  0
3152  0
3153  2
3154  0
3155  0
3156  1
3157  1
3158  0
3159  0
3160  1
3161  1
3162  0
3163  0
3164  0
3165  1
3166  1
3167  0
3168  0
3169  2
3170  0
3171  0
3172  1
3173  0
3174  0
3175  0
3176  1
3177  0
3178  1
3179  0
3180  1
3181  0
3182  0
3183  0
3184  0
3185  3
3186  0
3187  0
3188  0
3189  1
3190  0
3191  0
3192  1
3193  0
3194  1
3195  1
3196  0
3197  0
3198  0
3199  1
3200  0
3201  1
3202  0
3203  0
3204  0
3205  0
3206  1
3207  1
3208  0
3209  1
3210  1
3211  0
3212  0
3213  2
3214  1
3215  0
3216  1
3217  0
3218  0
3219  3
3220  0
3221  1
3222  1
3223  0
3224  0
3225  0
3226  0
3227  1
3228  0
3229  2
3230  0
3231  0
3232  1
3233  0
3234  1
3235  1
3236  1
3237  2
3238  2
3239  0
3240  0
3241  1
3242  0
3243  0
3244  0
3245  0
3246  0
3247  0
3248  0
3249  1
3250  2
3251  0
3252  1
3253  3
3254  1
3255  0
3256  0
3257  2
3258  0
3259  0
3260  1
3261  1
3262  0
3263  0
3264  0
3265  0
3266  0
3267  0
3268  1
3269  0
3270  0
3271  1
3272  1
3273  0
3274  0
3275  0
3276  0
3277  0
3278  1
3279  0
3280  0
3281  1
3282  1
3283  0
3284  0
3285  1
3286  1
3287  0
3288  0
3289  2
3290  0
3291  0
3292  1
3293  1
3294  0
3295  0
3296  0
3297  2
3298  0
3299  1
3300  0
3301  1
3302  1
3303  0
3304  0
3305  0
3306  2
3307  1
3308  0
3309  0
3310  0
3311  0
3312  0
3313  0
3314  0
3315  1
3316  0
3317  0
3318  0
3319  0
3320  0
3321  2
3322  0
3323  0
3324  0
3325  1
3326  0
3327  0
3328  0
3329  0
3330  0
3331  1
3332  0
3333  1
3334  1
3335  2
3336  0
3337  1
3338  1
3339  1
3340  0
3341  1
3342  1
3343  0
3344  0
3345  0
3346  2
3347  0
3348  0
3349  1
3350  0
3351  0
3352  0
3353  0
3354  1
3355  0
3356  1
3357  0
3358  0
3359  0
3360  0
3361  1
3362  1
3363  0
3364  2
3365  0
3366  0
3367  1
3368  1
3369  0
3370  2
3371  1
3372  0
3373  0
3374  1
3375  0
3376  0
3377  0
3378  0
3379  1
3380  0
3381  0
3382  1
3383  0
3384  0
3385  0
3386  1
3387  0
3388  0
3389  0
3390  0
3391  3
3392  0
3393  0
3394  0
3395  1
3396  0
3397  0
3398  0
3399  1
3400  0
3401  0
3402  1
3403  0
3404  0
3405  0
3406  1
3407  2
3408  1
3409  1
3410  0
3411  1
3412  2
3413  0
3414  0
3415  1
3416  0
3417  0
3418  2
3419  0
3420  1
3421  0
3422  0
3423  1
3424  0
3425  0
3426  1
3427  0
3428  2
3429  0
3430  0
3431  0
3432  0
3433  0
3434  0
3435  0
3436  0
3437  0
3438  0
3439  1
3440  1
3441  0
3442  1
3443  1
3444  1
3445  0
3446  0
3447  1
3448  1
3449  1
3450  0
3451  0
3452  0
3453  0
3454  1
3455  0
3456  1
3457  0
3458  0
3459  1
3460  0
3461  0
3462  0
3463  0
3464  0
3465  1
3466  1
3467  1
3468  1
3469  0
3470  0
3471  1
3472  1
3473  0
3474  0
3475  1
3476  0
3477  0
3478  0
3479  0
3480  1
3481  0
3482  1
3483  0
3484  1
3485  1
3486  1
3487  0
3488  0
3489  0
3490  1
3491  0
3492  0
3493  0
3494  0
3495  2
3496  1
3497  1
3498  0
3499  0
3500  3
3501  1
3502  0
3503  0
3504  0
3505  0
3506  1
3507  0
3508  0
3509  0
3510  0
3511  0
3512  0
3513  0
3514  0
3515  2
3516  1
3517  0
3518  1
3519  0
3520  2
3521  1
3522  1
3523  1
3524  0
3525  2
3526  2
3527  1
3528  2
3529  0
3530  0
3531  2
3532  1
3533  0
3534  0
3535  0
3536  0
3537  0
3538  0
3539  1
3540  2
3541  1
3542  0
3543  0
3544  0
3545  0
3546  0
3547  0
3548  1
3549  1
3550  0
3551  1
3552  0
3553  0
3554  0
3555  1
3556  0
3557  3
3558  0
3559  0
3560  0
3561  1
3562  0
3563  0
3564  0
3565  0
3566  1
3567  0
3568  0
3569  1
3570  1
3571  0
3572  2
3573  1
3574  0
3575  1
3576  1
3577  1
3578  0
3579  0
3580  1
3581  2
3582  0
3583  0
3584  1
3585  1
3586  1
3587  0
3588  1
3589  0
3590  2
3591  0
3592  0
3593  1
3594  2
3595  0
3596  0
3597  2
3598  0
3599  0
3600  0
3601  0
3602  0
3603  1
3604  0
3605  0
3606  1
3607  0
3608  0
3609  0
3610  0
3611  2
3612  0
3613  2
3614  1
3615  1
3616  0
3617  2
3618  0
3619  1
3620  0
3621  0
3622  0
3623  1
3624  1
3625  0
3626  0
3627  0
3628  2
3629  0
3630  0
3631  1
3632  0
3633  0
3634  0
3635  0
3636  1
3637  0
3638  0
3639  0
3640  0
3641  1
3642  0
3643  0
3644  3
3645  1
3646  0
3647  4
3648  1
3649  1
3650  0
3651  1
3652  0
3653  0
3654  0
3655  1
3656  0
3657  0
3658  0
3659  0
3660  0
3661  2
3662  0
3663  0
3664  1
3665  1
3666  0
3667  2
3668  0
3669  0
3670  0
3671  1
3672  0
3673  0
3674  1
3675  1
3676  1
3677  0
3678  2
3679  2
3680  0
3681  0
3682  0
3683  0
3684  0
3685  1
3686  0
3687  0
3688  0
3689  0
3690  0
3691  0
3692  1
3693  1
3694  0
3695  0
3696  0
3697  0
3698  0
3699  0
3700  0
3701  0
3702  0
3703  1
3704  1
3705  0
3706  1
3707  0
3708  1
3709  0
3710  1
3711  0
3712  1
3713  0
3714  1
3715  1
3716  0
3717  0
3718  0
3719  0
3720  0
3721  0
3722  0
3723  0
3724  0
3725  0
3726  0
3727  0
3728  0
3729  0
3730  0
3731  1
3732  2
3733  2
3734  1
3735  1
3736  0
3737  0
3738  0
3739  0
3740  0
3741  1
3742  1
3743  1
3744  0
3745  0
3746  1
3747  0
3748  0
3749  1
3750  1
3751  1
3752  0
3753  0
3754  1
3755  0
3756  0
3757  2
3758  1
3759  0
3760  0
3761  0
3762  1
3763  0
3764  1
3765  0
3766  2
3767  0
3768  1
3769  2
3770  1
3771  1
3772  3
3773  4
3774  1
3775  2
3776  1
3777  2
3778  2
3779  0
3780  1
3781  4
3782  1
3783  3
3784  3
3785  4
3786  1
3787  1
3788  1
3789  3
3790  0
3791  2
3792  1
3793  4
3794  0
3795  3
3796  2
3797  5
3798  3
3799  4
3800  6
3801  6
3802  10
3803  9
3804  10
3805  13
3806  17
3807  16
3808  11
3809  15
3810  11
3811  17
3812  19
3813  15
3814  16
3815  9
3816  12
3817  8
3818  10
3819  12
3820  9
3821  2
3822  4
3823  4
3824  4
3825  6
3826  2
3827  5
3828  4
3829  4
3830  1
3831  0
3832  3
3833  3
3834  2
3835  0
3836  1
3837  3
3838  1
3839  2
3840  0
3841  0
3842  0
3843  0
3844  0
3845  0
3846  0
3847  0
3848  0
3849  0
3850  0
3851  0
3852  0
3853  0
3854  0
3855  0
3856  0
3857  0
3858  0
3859  0
3860  0
3861  0
3862  0
3863  0
3864  0
3865  0
3866  0
3867  0
3868  0
3869  0
3870  0
3871  0
3872  0
3873  0
3874  0
3875  0
3876  0
3877  0
3878  0
3879  0
3880  0
3881  0
3882  0
3883  0
3884  0
3885  0
3886  0
3887  0
3888  0
3889  0
3890  0
3891  0
3892  0
3893  0
3894  0
3895  0
3896  0
3897  0
3898  0
3899  0
3900  0
3901  0
3902  0
3903  0
3904  0
3905  0
3906  0
3907  0
3908  0
3909  0
3910  0
3911  0
3912  0
3913  0
3914  0
3915  0
3916  0
3917  0
3918  0
3919  0
3920  0
3921  0
3922  0
3923  0
3924  0
3925  0
3926  0
3927  0
3928  0
3929  0
3930  0
3931  0
3932  0
3933  0
3934  0
3935  0
3936  0
3937  0
3938  0
3939  0
3940  0
3941  0
3942  0
3943  0
3944  0
3945  0
3946  0
3947  0
3948  0
3949  0
3950  0
3951  0
3952  0
3953  0
3954  0
3955  0
3956  0
3957  0
3958  0
3959  0
3960  0
3961  0
3962  0
3963  0
3964  0
3965  0
3966  0
3967  0
3968  0
3969  0
3970  0
3971  0
3972  0
3973  0
3974  0
3975  0
3976  0
3977  0
3978  0
3979  0
3980  0
3981  0
3982  0
3983  0
3984  0
3985  0
3986  0
3987  0
3988  0
3989  0
3990  0
3991  0
3992  0
3993  0
3994  0
3995  0
3996  0
3997  0
3998  0
3999  0
4000  0
4001  0
4002  0
4003  0
4004  0
4005  0
4006  0
4007  0
4008  0
4009  0
4010  0
4011  0
4012  0
4013  0
4014  0
4015  0
4016  0
4017  0
4018  0
4019  0
4020  0
4021  0
4022  0
4023  0
4024  0
4025  0
4026  0
4027  0
4028  0
4029  0
4030  0
4031  0
4032  0
4033  0
4034  0
4035  0
4036  0
4037  0
4038  0
4039  0
4040  0
4041  0
4042  0
4043  0
4044  0
4045  0
4046  0
4047  0
4048  0
4049  0
4050  0
4051  0
4052  0
4053  0
4054  0
4055  0
4056  0
4057  0
4058  0
4059  0
4060  0
4061  0
4062  0
4063  0
4064  0
4065  0
4066  0
4067  0
4068  0
4069  0
4070  0
4071  0
4072  0
4073  0
4074  0
4075  0
4076  0
4077  0
4078  0
4079  0
4080  0
4081  0
4082  0
4083  0
4084  0
4085  0
4086  0
4087  0
4088  0
4089  0
4090  0
4091  0
4092  0
4093  0
4094  0
4095  0
