0  0
1  0
2  0
3  0
4  0
5  0
6  0
7  0
8  0
9  0
10  0
11  0
12  0
13  0
14  0
15  0
16  0
17  0
18  0
19  0
20  0
21  0
22  0
23  0
24  0
25  0
26  0
27  0
28  0
29  0
30  0
31  0
32  0
33  0
34  0
35  0
36  0
37  0
38  0
39  0
40  0
41  0
42  0
43  0
44  0
45  0
46  0
47  0
48  0
49  0
50  0
51  0
52  0
53  0
54  0
55  0
56  0
57  0
58  0
59  0
60  0
61  0
62  0
63  0
64  0
65  0
66  0
67  0
68  0
69  0
70  0
71  0
72  0
73  0
74  0
75  0
76  0
77  0
78  0
79  0
80  0
81  0
82  0
83  0
84  0
85  0
86  0
87  0
88  0
89  0
90  0
91  0
92  0
93  0
94  0
95  0
96  0
97  0
98  0
99  0
100  0
101  0
102  0
103  0
104  0
105  0
106  0
107  0
108  0
109  0
110  0
111  0
112  0
113  0
114  0
115  0
116  0
117  0
118  0
119  0
120  0
121  0
122  0
123  0
124  0
125  0
126  0
127  0
128  0
129  0
130  0
131  0
132  0
133  0
134  0
135  0
136  0
137  0
138  0
139  0
140  0
141  0
142  0
143  0
144  0
145  0
146  0
147  0
148  0
149  0
150  0
151  0
152  0
153  0
154  0
155  0
156  0
157  0
158  0
159  0
160  0
161  0
162  0
163  0
164  0
165  0
166  0
167  0
168  0
169  0
170  0
171  0
172  0
173  0
174  0
175  0
176  0
177  0
178  0
179  0
180  0
181  0
182  0
183  0
184  0
185  0
186  0
187  0
188  0
189  0
190  0
191  0
192  0
193  0
194  0
195  0
196  0
197  0
198  0
199  0
200  0
201  0
202  0
203  0
204  0
205  0
206  0
207  0
208  0
209  0
210  0
211  0
212  0
213  0
214  0
215  0
216  0
217  0
218  0
219  0
220  0
221  0
222  0
223  0
224  0
225  0
226  0
227  0
228  0
229  0
230  0
231  0
232  0
233  0
234  0
235  0
236  0
237  0
238  0
239  0
240  0
241  0
242  0
243  0
244  0
245  0
246  0
247  0
248  0
249  0
250  0
251  0
252  0
253  0
254  0
255  0
256  0
257  0
258  0
259  0
260  0
261  0
262  0
263  0
264  0
265  0
266  0
267  0
268  0
269  0
270  0
271  0
272  0
273  0
274  0
275  0
276  0
277  0
278  0
279  0
280  0
281  0
282  0
283  0
284  0
285  0
286  0
287  0
288  0
289  0
290  0
291  0
292  0
293  0
294  0
295  0
296  0
297  0
298  0
299  0
300  0
301  0
302  0
303  0
304  0
305  0
306  0
307  0
308  0
309  0
310  0
311  0
312  0
313  0
314  0
315  0
316  0
317  0
318  0
319  0
320  0
321  0
322  0
323  0
324  0
325  0
326  0
327  0
328  0
329  0
330  0
331  0
332  0
333  0
334  0
335  0
336  0
337  0
338  0
339  0
340  0
341  0
342  0
343  0
344  0
345  0
346  0
347  0
348  0
349  0
350  0
351  0
352  0
353  0
354  0
355  0
356  0
357  0
358  0
359  0
360  0
361  0
362  0
363  0
364  0
365  0
366  0
367  0
368  0
369  0
370  0
371  0
372  0
373  0
374  0
375  0
376  0
377  0
378  0
379  0
380  0
381  0
382  0
383  0
384  0
385  0
386  0
387  0
388  0
389  0
390  0
391  0
392  0
393  0
394  0
395  0
396  0
397  0
398  0
399  0
400  0
401  0
402  0
403  0
404  0
405  0
406  0
407  0
408  0
409  0
410  0
411  0
412  0
413  0
414  0
415  0
416  0
417  0
418  0
419  0
420  0
421  0
422  0
423  0
424  0
425  0
426  0
427  0
428  0
429  0
430  0
431  0
432  0
433  0
434  0
435  0
436  0
437  0
438  0
439  0
440  0
441  0
442  0
443  0
444  0
445  0
446  0
447  0
448  0
449  0
450  0
451  0
452  0
453  0
454  0
455  0
456  0
457  0
458  0
459  0
460  0
461  0
462  0
463  0
464  0
465  0
466  0
467  0
468  0
469  0
470  0
471  0
472  0
473  0
474  0
475  0
476  0
477  0
478  0
479  0
480  0
481  0
482  0
483  0
484  0
485  0
486  0
487  0
488  0
489  0
490  0
491  0
492  0
493  0
494  0
495  0
496  0
497  0
498  0
499  0
500  0
501  0
502  0
503  0
504  0
505  0
506  0
507  0
508  0
509  0
510  0
511  0
512  0
513  0
514  0
515  0
516  0
517  0
518  0
519  0
520  0
521  0
522  0
523  0
524  0
525  0
526  0
527  0
528  0
529  0
530  0
531  0
532  0
533  0
534  0
535  0
536  0
537  0
538  0
539  0
540  0
541  0
542  0
543  0
544  0
545  0
546  0
547  0
548  0
549  0
550  0
551  0
552  0
553  0
554  0
555  0
556  0
557  0
558  0
559  0
560  0
561  0
562  0
563  0
564  0
565  0
566  0
567  0
568  0
569  0
570  0
571  0
572  0
573  0
574  0
575  0
576  0
577  0
578  0
579  0
580  0
581  0
582  0
583  0
584  0
585  0
586  0
587  0
588  0
589  0
590  0
591  0
592  0
593  0
594  0
595  0
596  0
597  0
598  0
599  0
600  0
601  0
602  0
603  0
604  0
605  0
606  0
607  0
608  0
609  0
610  0
611  0
612  0
613  0
614  0
615  0
616  0
617  0
618  0
619  0
620  0
621  0
622  0
623  0
624  0
625  0
626  0
627  0
628  0
629  0
630  0
631  0
632  0
633  0
634  0
635  0
636  0
637  0
638  0
639  0
640  0
641  0
642  0
643  0
644  0
645  0
646  0
647  0
648  0
649  0
650  0
651  0
652  0
653  0
654  0
655  0
656  0
657  0
658  0
659  0
660  0
661  0
662  0
663  0
664  0
665  0
666  0
667  0
668  0
669  0
670  0
671  0
672  0
673  0
674  0
675  0
676  0
677  0
678  0
679  0
680  0
681  0
682  0
683  0
684  0
685  0
686  0
687  0
688  0
689  0
690  0
691  0
692  0
693  0
694  0
695  0
696  0
697  0
698  0
699  0
700  0
701  0
702  0
703  0
704  0
705  0
706  0
707  0
708  0
709  0
710  0
711  0
712  0
713  0
714  0
715  0
716  0
717  0
718  0
719  0
720  0
721  0
722  0
723  0
724  0
725  0
726  0
727  0
728  0
729  0
730  0
731  0
732  0
733  0
734  0
735  0
736  0
737  0
738  0
739  0
740  0
741  0
742  0
743  0
744  0
745  0
746  0
747  0
748  0
749  0
750  0
751  0
752  0
753  0
754  0
755  0
756  0
757  0
758  0
759  0
760  0
761  0
762  0
763  0
764  0
765  0
766  0
767  0
768  0
769  0
770  0
771  0
772  0
773  0
774  0
775  0
776  0
777  0
778  0
779  0
780  0
781  0
782  0
783  0
784  0
785  0
786  0
787  0
788  0
789  0
790  0
791  0
792  0
793  0
794  0
795  0
796  0
797  0
798  0
799  0
800  0
801  0
802  0
803  0
804  0
805  0
806  0
807  0
808  0
809  0
810  0
811  0
812  0
813  0
814  0
815  0
816  0
817  0
818  0
819  0
820  0
821  0
822  0
823  0
824  0
825  0
826  0
827  0
828  0
829  0
830  0
831  0
832  0
833  0
834  0
835  0
836  0
837  0
838  0
839  0
840  0
841  0
842  0
843  0
844  0
845  0
846  0
847  0
848  0
849  0
850  0
851  0
852  0
853  0
854  0
855  0
856  0
857  0
858  0
859  0
860  0
861  0
862  0
863  0
864  0
865  0
866  0
867  0
868  0
869  0
870  0
871  0
872  0
873  0
874  0
875  0
876  0
877  0
878  0
879  0
880  0
881  0
882  0
883  0
884  0
885  0
886  0
887  0
888  0
889  0
890  0
891  0
892  0
893  0
894  0
895  0
896  0
897  0
898  0
899  0
900  0
901  0
902  0
903  0
904  0
905  0
906  0
907  0
908  0
909  0
910  0
911  0
912  0
913  0
914  0
915  0
916  0
917  0
918  0
919  0
920  0
921  0
922  0
923  0
924  0
925  0
926  0
927  0
928  0
929  0
930  0
931  0
932  0
933  0
934  0
935  0
936  0
937  0
938  0
939  0
940  0
941  0
942  0
943  0
944  0
945  0
946  0
947  0
948  0
949  0
950  0
951  0
952  0
953  0
954  0
955  0
956  0
957  0
958  0
959  0
960  0
961  0
962  0
963  0
964  0
965  0
966  0
967  0
968  0
969  0
970  0
971  0
972  0
973  0
974  0
975  0
976  0
977  0
978  0
979  0
980  0
981  0
982  0
983  0
984  0
985  0
986  0
987  0
988  0
989  0
990  0
991  0
992  0
993  0
994  0
995  0
996  0
997  0
998  0
999  0
1000  0
1001  0
1002  0
1003  0
1004  0
1005  0
1006  0
1007  0
1008  0
1009  0
1010  0
1011  0
1012  0
1013  0
1014  0
1015  0
1016  0
1017  0
1018  0
1019  0
1020  0
1021  0
1022  0
1023  0
1024  0
1025  0
1026  0
1027  0
1028  0
1029  0
1030  0
1031  0
1032  0
1033  0
1034  0
1035  0
1036  0
1037  0
1038  0
1039  0
1040  0
1041  0
1042  0
1043  0
1044  0
1045  0
1046  0
1047  0
1048  0
1049  0
1050  0
1051  0
1052  0
1053  0
1054  0
1055  0
1056  0
1057  0
1058  0
1059  0
1060  0
1061  0
1062  0
1063  0
1064  0
1065  0
1066  0
1067  0
1068  0
1069  0
1070  0
1071  0
1072  0
1073  0
1074  0
1075  0
1076  0
1077  0
1078  0
1079  0
1080  0
1081  0
1082  0
1083  0
1084  0
1085  0
1086  0
1087  0
1088  0
1089  0
1090  0
1091  0
1092  0
1093  0
1094  0
1095  0
1096  0
1097  0
1098  0
1099  0
1100  0
1101  0
1102  0
1103  0
1104  0
1105  0
1106  0
1107  0
1108  0
1109  0
1110  0
1111  0
1112  0
1113  0
1114  0
1115  0
1116  0
1117  0
1118  0
1119  0
1120  0
1121  0
1122  0
1123  0
1124  0
1125  0
1126  0
1127  0
1128  0
1129  0
1130  0
1131  0
1132  0
1133  0
1134  0
1135  0
1136  0
1137  0
1138  0
1139  0
1140  0
1141  0
1142  0
1143  0
1144  0
1145  0
1146  0
1147  0
1148  0
1149  0
1150  0
1151  0
1152  0
1153  0
1154  0
1155  0
1156  0
1157  0
1158  0
1159  0
1160  0
1161  0
1162  0
1163  0
1164  0
1165  0
1166  0
1167  0
1168  0
1169  0
1170  0
1171  0
1172  0
1173  0
1174  0
1175  0
1176  0
1177  0
1178  0
1179  0
1180  0
1181  0
1182  0
1183  0
1184  0
1185  0
1186  0
1187  0
1188  0
1189  0
1190  0
1191  0
1192  0
1193  0
1194  0
1195  0
1196  0
1197  0
1198  0
1199  0
1200  0
1201  0
1202  0
1203  0
1204  0
1205  0
1206  0
1207  0
1208  0
1209  0
1210  0
1211  0
1212  0
1213  0
1214  0
1215  0
1216  0
1217  0
1218  0
1219  0
1220  0
1221  0
1222  0
1223  0
1224  0
1225  0
1226  0
1227  0
1228  0
1229  0
1230  0
1231  0
1232  0
1233  0
1234  0
1235  0
1236  0
1237  0
1238  0
1239  0
1240  0
1241  0
1242  0
1243  0
1244  0
1245  0
1246  0
1247  0
1248  0
1249  0
1250  0
1251  0
1252  0
1253  0
1254  0
1255  0
1256  0
1257  0
1258  0
1259  0
1260  0
1261  0
1262  0
1263  0
1264  0
1265  0
1266  0
1267  0
1268  0
1269  0
1270  0
1271  0
1272  0
1273  0
1274  0
1275  0
1276  0
1277  0
1278  0
1279  0
1280  0
1281  0
1282  0
1283  0
1284  0
1285  0
1286  0
1287  0
1288  0
1289  0
1290  0
1291  0
1292  0
1293  0
1294  0
1295  0
1296  0
1297  0
1298  0
1299  0
1300  0
1301  0
1302  0
1303  0
1304  0
1305  0
1306  0
1307  0
1308  0
1309  0
1310  0
1311  0
1312  0
1313  0
1314  0
1315  0
1316  0
1317  0
1318  0
1319  0
1320  0
1321  0
1322  0
1323  0
1324  0
1325  0
1326  0
1327  0
1328  0
1329  0
1330  0
1331  0
1332  0
1333  0
1334  0
1335  0
1336  0
1337  0
1338  0
1339  0
1340  0
1341  0
1342  0
1343  0
1344  0
1345  0
1346  0
1347  0
1348  0
1349  0
1350  0
1351  0
1352  0
1353  0
1354  0
1355  0
1356  0
1357  0
1358  0
1359  0
1360  0
1361  0
1362  0
1363  0
1364  0
1365  0
1366  0
1367  0
1368  0
1369  0
1370  0
1371  0
1372  0
1373  0
1374  0
1375  0
1376  0
1377  0
1378  0
1379  0
1380  0
1381  0
1382  0
1383  0
1384  0
1385  0
1386  0
1387  0
1388  0
1389  0
1390  0
1391  0
1392  0
1393  0
1394  0
1395  0
1396  0
1397  0
1398  0
1399  0
1400  0
1401  0
1402  0
1403  0
1404  0
1405  0
1406  0
1407  0
1408  0
1409  0
1410  0
1411  0
1412  0
1413  0
1414  0
1415  0
1416  0
1417  0
1418  0
1419  0
1420  0
1421  0
1422  0
1423  0
1424  0
1425  0
1426  0
1427  0
1428  0
1429  0
1430  0
1431  0
1432  0
1433  0
1434  0
1435  0
1436  0
1437  0
1438  0
1439  0
1440  0
1441  0
1442  0
1443  0
1444  0
1445  0
1446  0
1447  0
1448  0
1449  0
1450  0
1451  0
1452  0
1453  0
1454  0
1455  0
1456  0
1457  0
1458  0
1459  0
1460  0
1461  0
1462  0
1463  0
1464  0
1465  0
1466  0
1467  0
1468  0
1469  0
1470  0
1471  0
1472  0
1473  0
1474  0
1475  0
1476  0
1477  0
1478  0
1479  0
1480  0
1481  0
1482  0
1483  0
1484  0
1485  0
1486  0
1487  0
1488  0
1489  0
1490  0
1491  0
1492  0
1493  0
1494  0
1495  0
1496  0
1497  0
1498  0
1499  0
1500  0
1501  0
1502  0
1503  0
1504  0
1505  0
1506  0
1507  0
1508  0
1509  0
1510  0
1511  0
1512  0
1513  0
1514  0
1515  0
1516  0
1517  0
1518  0
1519  0
1520  0
1521  0
1522  0
1523  0
1524  0
1525  0
1526  0
1527  0
1528  0
1529  0
1530  0
1531  0
1532  0
1533  0
1534  0
1535  0
1536  0
1537  0
1538  0
1539  0
1540  0
1541  0
1542  0
1543  0
1544  0
1545  0
1546  0
1547  0
1548  0
1549  0
1550  0
1551  0
1552  0
1553  0
1554  0
1555  0
1556  0
1557  0
1558  0
1559  0
1560  0
1561  0
1562  0
1563  0
1564  0
1565  0
1566  0
1567  0
1568  0
1569  0
1570  0
1571  0
1572  0
1573  0
1574  0
1575  0
1576  0
1577  0
1578  0
1579  0
1580  0
1581  0
1582  0
1583  0
1584  0
1585  0
1586  0
1587  0
1588  0
1589  0
1590  0
1591  0
1592  0
1593  0
1594  0
1595  0
1596  0
1597  0
1598  0
1599  0
1600  0
1601  0
1602  0
1603  0
1604  0
1605  0
1606  0
1607  0
1608  0
1609  0
1610  0
1611  0
1612  0
1613  0
1614  0
1615  0
1616  0
1617  0
1618  0
1619  0
1620  0
1621  0
1622  0
1623  0
1624  0
1625  0
1626  0
1627  0
1628  0
1629  0
1630  0
1631  0
1632  0
1633  0
1634  0
1635  0
1636  0
1637  0
1638  0
1639  0
1640  0
1641  0
1642  0
1643  0
1644  0
1645  0
1646  0
1647  0
1648  0
1649  0
1650  0
1651  0
1652  0
1653  0
1654  0
1655  0
1656  0
1657  0
1658  0
1659  0
1660  0
1661  0
1662  0
1663  0
1664  0
1665  0
1666  5
1667  59
1668  258
1669  435
1670  429
1671  419
1672  448
1673  377
1674  380
1675  342
1676  338
1677  338
1678  322
1679  316
1680  297
1681  293
1682  256
1683  254
1684  234
1685  226
1686  213
1687  222
1688  164
1689  203
1690  200
1691  176
1692  178
1693  152
1694  158
1695  160
1696  145
1697  145
1698  136
1699  154
1700  133
1701  144
1702  99
1703  113
1704  118
1705  89
1706  118
1707  96
1708  109
1709  97
1710  104
1711  82
1712  106
1713  90
1714  64
1715  76
1716  54
1717  76
1718  60
1719  69
1720  67
1721  49
1722  65
1723  59
1724  54
1725  64
1726  55
1727  63
1728  40
1729  63
1730  56
1731  53
1732  40
1733  52
1734  47
1735  49
1736  39
1737  30
1738  47
1739  38
1740  47
1741  38
1742  45
1743  28
1744  26
1745  38
1746  32
1747  40
1748  31
1749  36
1750  28
1751  40
1752  30
1753  33
1754  31
1755  30
1756  30
1757  39
1758  29
1759  29
1760  32
1761  25
1762  32
1763  26
1764  28
1765  32
1766  36
1767  25
1768  34
1769  34
1770  49
1771  36
1772  34
1773  39
1774  34
1775  32
1776  33
1777  36
1778  33
1779  44
1780  42
1781  36
1782  29
1783  36
1784  25
1785  38
1786  45
1787  32
1788  31
1789  52
1790  50
1791  60
1792  48
1793  43
1794  50
1795  51
1796  50
1797  51
1798  41
1799  44
1800  60
1801  48
1802  58
1803  48
1804  62
1805  73
1806  71
1807  78
1808  74
1809  75
1810  84
1811  88
1812  78
1813  71
1814  56
1815  71
1816  79
1817  91
1818  78
1819  77
1820  89
1821  94
1822  92
1823  77
1824  100
1825  89
1826  102
1827  110
1828  101
1829  98
1830  114
1831  109
1832  123
1833  123
1834  111
1835  124
1836  136
1837  140
1838  145
1839  138
1840  152
1841  135
1842  144
1843  151
1844  157
1845  190
1846  166
1847  169
1848  194
1849  203
1850  190
1851  192
1852  215
1853  206
1854  224
1855  229
1856  247
1857  261
1858  242
1859  252
1860  261
1861  293
1862  257
1863  251
1864  277
1865  276
1866  299
1867  324
1868  337
1869  324
1870  327
1871  328
1872  374
1873  356
1874  389
1875  414
1876  405
1877  445
1878  429
1879  477
1880  509
1881  467
1882  511
1883  468
1884  531
1885  479
1886  523
1887  542
1888  564
1889  569
1890  620
1891  609
1892  692
1893  710
1894  703
1895  688
1896  698
1897  722
1898  726
1899  742
1900  756
1901  799
1902  784
1903  845
1904  865
1905  935
1906  854
1907  922
1908  954
1909  931
1910  991
1911  1063
1912  1078
1913  1096
1914  1102
1915  1092
1916  1130
1917  1096
1918  1166
1919  1183
1920  1229
1921  1318
1922  1197
1923  1302
1924  1358
1925  1359
1926  1411
1927  1481
1928  1449
1929  1460
1930  1534
1931  1548
1932  1591
1933  1505
1934  1601
1935  1576
1936  1704
1937  1661
1938  1724
1939  1727
1940  1756
1941  1668
1942  1786
1943  1774
1944  1854
1945  1878
1946  1866
1947  1937
1948  1872
1949  2022
1950  1951
1951  1959
1952  2092
1953  2176
1954  2093
1955  2083
1956  2149
1957  2184
1958  2172
1959  2274
1960  2248
1961  2329
1962  2247
1963  2407
1964  2338
1965  2340
1966  2460
1967  2439
1968  2455
1969  2554
1970  2457
1971  2506
1972  2486
1973  2616
1974  2648
1975  2612
1976  2660
1977  2611
1978  2673
1979  2695
1980  2763
1981  2695
1982  2776
1983  2721
1984  2777
1985  2811
1986  2770
1987  2824
1988  2813
1989  2879
1990  2733
1991  2913
1992  2931
1993  2902
1994  2932
1995  2952
1996  3001
1997  3014
1998  2872
1999  2956
2000  3011
2001  3073
2002  2884
2003  2991
2004  2983
2005  3011
2006  2963
2007  3064
2008  3151
2009  3032
2010  3013
2011  3035
2012  3007
2013  3074
2014  2983
2015  3098
2016  3171
2017  3052
2018  3016
2019  3149
2020  3036
2021  2994
2022  3023
2023  2964
2024  3007
2025  3115
2026  3129
2027  3060
2028  3043
2029  3024
2030  2991
2031  3017
2032  3042
2033  3015
2034  3043
2035  3044
2036  3036
2037  3000
2038  3037
2039  3016
2040  2976
2041  2953
2042  3033
2043  3012
2044  2999
2045  3003
2046  3003
2047  2962
2048  2975
2049  3004
2050  2899
2051  2979
2052  2967
2053  2953
2054  2929
2055  2933
2056  2829
2057  2936
2058  2804
2059  2790
2060  2834
2061  2764
2062  2754
2063  2860
2064  2853
2065  2846
2066  2662
2067  2818
2068  2804
2069  2635
2070  2751
2071  2789
2072  2688
2073  2727
2074  2727
2075  2654
2076  2689
2077  2654
2078  2657
2079  2551
2080  2586
2081  2545
2082  2639
2083  2586
2084  2501
2085  2450
2086  2658
2087  2525
2088  2478
2089  2550
2090  2572
2091  2530
2092  2519
2093  2523
2094  2438
2095  2373
2096  2383
2097  2319
2098  2383
2099  2303
2100  2360
2101  2396
2102  2323
2103  2290
2104  2217
2105  2283
2106  2137
2107  2334
2108  2261
2109  2165
2110  2273
2111  2231
2112  2178
2113  2122
2114  2179
2115  2021
2116  2031
2117  2096
2118  2058
2119  2082
2120  2097
2121  2007
2122  2053
2123  2004
2124  2031
2125  1967
2126  1901
2127  2002
2128  2055
2129  1936
2130  1929
2131  1895
2132  1902
2133  1852
2134  1862
2135  1871
2136  1885
2137  1798
2138  1832
2139  1770
2140  1777
2141  1807
2142  1736
2143  1711
2144  1809
2145  1800
2146  1721
2147  1673
2148  1719
2149  1588
2150  1659
2151  1661
2152  1646
2153  1604
2154  1633
2155  1664
2156  1554
2157  1532
2158  1535
2159  1531
2160  1596
2161  1581
2162  1492
2163  1492
2164  1480
2165  1503
2166  1441
2167  1428
2168  1427
2169  1407
2170  1451
2171  1411
2172  1379
2173  1340
2174  1364
2175  1393
2176  1396
2177  1379
2178  1348
2179  1296
2180  1287
2181  1270
2182  1261
2183  1216
2184  1284
2185  1295
2186  1183
2187  1235
2188  1195
2189  1227
2190  1203
2191  1175
2192  1152
2193  1156
2194  1180
2195  1112
2196  1132
2197  1144
2198  1128
2199  1155
2200  1117
2201  1063
2202  1055
2203  1047
2204  1072
2205  1042
2206  1027
2207  986
2208  981
2209  1031
2210  988
2211  941
2212  1004
2213  932
2214  961
2215  963
2216  918
2217  915
2218  941
2219  928
2220  857
2221  847
2222  907
2223  918
2224  861
2225  893
2226  901
2227  919
2228  919
2229  876
2230  877
2231  858
2232  835
2233  838
2234  779
2235  761
2236  800
2237  769
2238  767
2239  769
2240  774
2241  744
2242  757
2243  752
2244  753
2245  733
2246  665
2247  750
2248  663
2249  668
2250  677
2251  706
2252  652
2253  665
2254  683
2255  643
2256  631
2257  642
2258  694
2259  652
2260  662
2261  627
2262  608
2263  642
2264  562
2265  620
2266  590
2267  624
2268  568
2269  570
2270  632
2271  583
2272  555
2273  535
2274  516
2275  563
2276  536
2277  526
2278  528
2279  535
2280  508
2281  527
2282  526
2283  517
2284  520
2285  498
2286  503
2287  524
2288  466
2289  472
2290  477
2291  496
2292  468
2293  479
2294  441
2295  433
2296  439
2297  423
2298  435
2299  412
2300  420
2301  436
2302  372
2303  455
2304  434
2305  376
2306  381
2307  432
2308  376
2309  414
2310  359
2311  371
2312  354
2313  345
2314  380
2315  396
2316  349
2317  380
2318  383
2319  351
2320  377
2321  363
2322  354
2323  325
2324  357
2325  370
2326  358
2327  321
2328  340
2329  332
2330  304
2331  301
2332  310
2333  299
2334  309
2335  301
2336  336
2337  305
2338  291
2339  270
2340  268
2341  256
2342  277
2343  289
2344  272
2345  295
2346  292
2347  270
2348  247
2349  265
2350  258
2351  291
2352  272
2353  262
2354  264
2355  265
2356  238
2357  241
2358  248
2359  246
2360  259
2361  205
2362  233
2363  226
2364  227
2365  221
2366  237
2367  229
2368  202
2369  219
2370  232
2371  208
2372  230
2373  230
2374  220
2375  196
2376  210
2377  208
2378  176
2379  191
2380  215
2381  223
2382  214
2383  190
2384  197
2385  201
2386  212
2387  184
2388  188
2389  201
2390  186
2391  213
2392  197
2393  183
2394  199
2395  179
2396  171
2397  175
2398  160
2399  198
2400  177
2401  185
2402  158
2403  128
2404  155
2405  150
2406  157
2407  155
2408  161
2409  150
2410  138
2411  151
2412  160
2413  154
2414  144
2415  147
2416  137
2417  139
2418  141
2419  144
2420  129
2421  149
2422  130
2423  135
2424  132
2425  135
2426  126
2427  142
2428  133
2429  151
2430  112
2431  117
2432  130
2433  144
2434  124
2435  115
2436  136
2437  134
2438  97
2439  113
2440  131
2441  113
2442  127
2443  105
2444  101
2445  113
2446  105
2447  113
2448  110
2449  122
2450  113
2451  98
2452  103
2453  89
2454  110
2455  114
2456  102
2457  99
2458  115
2459  102
2460  95
2461  105
2462  92
2463  98
2464  86
2465  80
2466  98
2467  97
2468  95
2469  75
2470  99
2471  103
2472  90
2473  87
2474  65
2475  96
2476  81
2477  70
2478  78
2479  91
2480  88
2481  91
2482  94
2483  82
2484  67
2485  80
2486  89
2487  66
2488  68
2489  68
2490  72
2491  69
2492  69
2493  75
2494  72
2495  68
2496  60
2497  76
2498  54
2499  79
2500  51
2501  63
2502  76
2503  60
2504  73
2505  60
2506  56
2507  62
2508  76
2509  77
2510  77
2511  49
2512  70
2513  70
2514  72
2515  54
2516  65
2517  67
2518  72
2519  63
2520  53
2521  50
2522  54
2523  62
2524  67
2525  56
2526  55
2527  49
2528  54
2529  67
2530  46
2531  55
2532  54
2533  54
2534  39
2535  42
2536  57
2537  47
2538  42
2539  49
2540  33
2541  41
2542  47
2543  57
2544  44
2545  65
2546  38
2547  48
2548  53
2549  43
2550  37
2551  56
2552  40
2553  29
2554  44
2555  44
2556  37
2557  46
2558  30
2559  42
2560  37
2561  43
2562  32
2563  38
2564  39
2565  42
2566  46
2567  44
2568  39
2569  61
2570  41
2571  41
2572  40
2573  40
2574  45
2575  37
2576  24
2577  31
2578  36
2579  37
2580  24
2581  29
2582  39
2583  29
2584  36
2585  34
2586  26
2587  37
2588  27
2589  30
2590  35
2591  18
2592  26
2593  26
2594  25
2595  26
2596  26
2597  30
2598  37
2599  23
2600  28
2601  23
2602  23
2603  21
2604  28
2605  21
2606  35
2607  29
2608  18
2609  22
2610  35
2611  18
2612  27
2613  25
2614  24
2615  23
2616  24
2617  19
2618  25
2619  24
2620  39
2621  24
2622  18
2623  19
2624  20
2625  27
2626  22
2627  30
2628  22
2629  24
2630  29
2631  25
2632  21
2633  24
2634  27
2635  17
2636  18
2637  19
2638  26
2639  16
2640  20
2641  21
2642  19
2643  20
2644  29
2645  22
2646  25
2647  35
2648  19
2649  26
2650  12
2651  28
2652  15
2653  22
2654  26
2655  24
2656  17
2657  16
2658  17
2659  14
2660  15
2661  16
2662  26
2663  16
2664  16
2665  19
2666  16
2667  11
2668  20
2669  18
2670  16
2671  16
2672  10
2673  24
2674  11
2675  18
2676  17
2677  20
2678  14
2679  17
2680  13
2681  17
2682  13
2683  13
2684  10
2685  17
2686  16
2687  15
2688  17
2689  9
2690  19
2691  9
2692  15
2693  8
2694  9
2695  18
2696  11
2697  11
2698  17
2699  16
2700  11
2701  17
2702  16
2703  17
2704  14
2705  16
2706  11
2707  12
2708  9
2709  12
2710  11
2711  4
2712  11
2713  10
2714  8
2715  11
2716  12
2717  9
2718  12
2719  9
2720  9
2721  21
2722  14
2723  14
2724  12
2725  9
2726  19
2727  13
2728  11
2729  13
2730  7
2731  13
2732  12
2733  7
2734  13
2735  12
2736  7
2737  5
2738  14
2739  14
2740  12
2741  8
2742  7
2743  14
2744  8
2745  11
2746  10
2747  12
2748  6
2749  18
2750  8
2751  5
2752  9
2753  8
2754  15
2755  9
2756  7
2757  6
2758  9
2759  15
2760  8
2761  8
2762  11
2763  7
2764  8
2765  10
2766  10
2767  7
2768  14
2769  10
2770  8
2771  10
2772  11
2773  6
2774  8
2775  5
2776  7
2777  13
2778  8
2779  12
2780  7
2781  7
2782  6
2783  14
2784  10
2785  10
2786  9
2787  9
2788  7
2789  9
2790  7
2791  13
2792  9
2793  10
2794  5
2795  5
2796  6
2797  2
2798  10
2799  8
2800  4
2801  6
2802  4
2803  7
2804  3
2805  7
2806  8
2807  6
2808  4
2809  13
2810  7
2811  8
2812  9
2813  3
2814  6
2815  9
2816  9
2817  6
2818  2
2819  4
2820  3
2821  10
2822  6
2823  3
2824  13
2825  13
2826  7
2827  3
2828  3
2829  9
2830  6
2831  7
2832  6
2833  5
2834  7
2835  8
2836  2
2837  7
2838  8
2839  4
2840  8
2841  4
2842  10
2843  5
2844  7
2845  5
2846  9
2847  6
2848  1
2849  6
2850  3
2851  3
2852  4
2853  4
2854  6
2855  6
2856  7
2857  4
2858  6
2859  5
2860  3
2861  4
2862  9
2863  4
2864  5
2865  4
2866  5
2867  4
2868  6
2869  10
2870  3
2871  4
2872  2
2873  3
2874  4
2875  5
2876  6
2877  4
2878  5
2879  3
2880  4
2881  7
2882  4
2883  4
2884  3
2885  2
2886  2
2887  2
2888  2
2889  7
2890  8
2891  1
2892  5
2893  4
2894  2
2895  1
2896  1
2897  4
2898  5
2899  2
2900  2
2901  2
2902  7
2903  0
2904  4
2905  1
2906  4
2907  8
2908  3
2909  1
2910  1
2911  7
2912  6
2913  4
2914  1
2915  2
2916  3
2917  4
2918  6
2919  3
2920  3
2921  2
2922  6
2923  2
2924  2
2925  4
2926  8
2927  2
2928  1
2929  3
2930  1
2931  1
2932  3
2933  3
2934  6
2935  2
2936  2
2937  1
2938  2
2939  2
2940  4
2941  5
2942  1
2943  3
2944  3
2945  2
2946  5
2947  5
2948  3
2949  3
2950  5
2951  2
2952  0
2953  3
2954  5
2955  4
2956  6
2957  4
2958  3
2959  5
2960  4
2961  5
2962  4
2963  3
2964  3
2965  4
2966  2
2967  2
2968  3
2969  3
2970  2
2971  0
2972  3
2973  4
2974  4
2975  2
2976  0
2977  2
2978  2
2979  0
2980  3
2981  1
2982  0
2983  3
2984  2
2985  1
2986  4
2987  1
2988  0
2989  6
2990  3
2991  1
2992  4
2993  2
2994  2
2995  2
2996  3
2997  4
2998  3
2999  2
3000  3
3001  1
3002  4
3003  1
3004  4
3005  2
3006  1
3007  0
3008  2
3009  2
3010  2
3011  5
3012  3
3013  1
3014  6
3015  0
3016  3
3017  2
3018  1
3019  4
3020  2
3021  1
3022  0
3023  3
3024  2
3025  1
3026  3
3027  3
3028  2
3029  1
3030  3
3031  0
3032  2
3033  3
3034  3
3035  1
3036  2
3037  3
3038  5
3039  3
3040  2
3041  0
3042  3
3043  2
3044  2
3045  1
3046  2
3047  3
3048  2
3049  1
3050  2
3051  0
3052  2
3053  2
3054  0
3055  1
3056  1
3057  1
3058  3
3059  2
3060  1
3061  4
3062  2
3063  2
3064  1
3065  0
3066  2
3067  1
3068  1
3069  1
3070  0
3071  0
3072  0
3073  1
3074  0
3075  2
3076  2
3077  3
3078  2
3079  2
3080  3
3081  4
3082  1
3083  4
3084  2
3085  3
3086  1
3087  1
3088  2
3089  2
3090  2
3091  1
3092  3
3093  2
3094  1
3095  1
3096  2
3097  3
3098  3
3099  1
3100  4
3101  0
3102  4
3103  2
3104  0
3105  1
3106  3
3107  1
3108  1
3109  1
3110  0
3111  2
3112  3
3113  0
3114  3
3115  1
3116  1
3117  3
3118  2
3119  1
3120  0
3121  1
3122  1
3123  1
3124  3
3125  1
3126  3
3127  1
3128  1
3129  1
3130  3
3131  0
3132  1
3133  1
3134  1
3135  0
3136  2
3137  1
3138  1
3139  0
3140  0
3141  1
3142  1
3143  0
3144  0
3145  1
3146  2
3147  0
3148  1
3149  1
3150  1
3151  1
3152  1
3153  3
3154  0
3155  2
3156  0
3157  0
3158  3
3159  1
3160  0
3161  0
3162  1
3163  1
3164  1
3165  2
3166  0
3167  0
3168  0
3169  3
3170  2
3171  1
3172  1
3173  0
3174  1
3175  0
3176  0
3177  4
3178  0
3179  0
3180  0
3181  0
3182  3
3183  1
3184  2
3185  1
3186  0
3187  0
3188  1
3189  1
3190  2
3191  1
3192  0
3193  2
3194  0
3195  4
3196  0
3197  1
3198  0
3199  0
3200  3
3201  1
3202  1
3203  2
3204  0
3205  1
3206  0
3207  0
3208  1
3209  2
3210  1
3211  1
3212  0
3213  1
3214  0
3215  2
3216  0
3217  1
3218  2
3219  1
3220  0
3221  3
3222  1
3223  1
3224  0
3225  1
3226  3
3227  1
3228  0
3229  0
3230  0
3231  0
3232  0
3233  1
3234  1
3235  2
3236  2
3237  1
3238  1
3239  0
3240  2
3241  0
3242  0
3243  1
3244  1
3245  1
3246  5
3247  2
3248  0
3249  1
3250  0
3251  2
3252  0
3253  3
3254  1
3255  0
3256  3
3257  0
3258  0
3259  2
3260  1
3261  2
3262  0
3263  0
3264  0
3265  2
3266  1
3267  1
3268  0
3269  1
3270  0
3271  0
3272  1
3273  2
3274  2
3275  0
3276  1
3277  0
3278  1
3279  1
3280  0
3281  1
3282  0
3283  0
3284  0
3285  0
3286  0
3287  1
3288  0
3289  2
3290  0
3291  3
3292  1
3293  2
3294  0
3295  1
3296  1
3297  1
3298  1
3299  0
3300  0
3301  0
3302  2
3303  0
3304  3
3305  0
3306  0
3307  0
3308  0
3309  1
3310  1
3311  0
3312  1
3313  4
3314  1
3315  0
3316  1
3317  0
3318  0
3319  1
3320  0
3321  1
3322  1
3323  0
3324  0
3325  0
3326  0
3327  0
3328  0
3329  0
3330  0
3331  2
3332  0
3333  0
3334  1
3335  0
3336  3
3337  0
3338  0
3339  1
3340  0
3341  0
3342  1
3343  0
3344  0
3345  1
3346  0
3347  0
3348  1
3349  1
3350  1
3351  1
3352  0
3353  0
3354  0
3355  1
3356  1
3357  1
3358  0
3359  0
3360  1
3361  0
3362  3
3363  0
3364  1
3365  2
3366  1
3367  1
3368  1
3369  1
3370  1
3371  0
3372  0
3373  0
3374  1
3375  0
3376  1
3377  0
3378  0
3379  1
3380  0
3381  0
3382  1
3383  1
3384  1
3385  0
3386  1
3387  0
3388  1
3389  0
3390  0
3391  1
3392  2
3393  1
3394  0
3395  0
3396  0
3397  0
3398  0
3399  0
3400  1
3401  0
3402  0
3403  0
3404  1
3405  0
3406  0
3407  0
3408  0
3409  0
3410  0
3411  0
3412  1
3413  2
3414  0
3415  1
3416  2
3417  0
3418  0
3419  2
3420  0
3421  1
3422  0
3423  1
3424  0
3425  1
3426  1
3427  2
3428  0
3429  1
3430  0
3431  0
3432  0
3433  1
3434  0
3435  0
3436  1
3437  0
3438  1
3439  1
3440  2
3441  0
3442  1
3443  0
3444  1
3445  0
3446  0
3447  1
3448  3
3449  2
3450  0
3451  1
3452  0
3453  0
3454  0
3455  2
3456  0
3457  0
3458  0
3459  0
3460  1
3461  0
3462  0
3463  0
3464  0
3465  0
3466  1
3467  0
3468  0
3469  0
3470  0
3471  1
3472  2
3473  1
3474  0
3475  0
3476  0
3477  0
3478  1
3479  1
3480  0
3481  0
3482  0
3483  1
3484  0
3485  1
3486  1
3487  0
3488  1
3489  0
3490  0
3491  0
3492  0
3493  0
3494  1
3495  0
3496  0
3497  2
3498  0
3499  1
3500  0
3501  1
3502  0
3503  1
3504  0
3505  1
3506  0
3507  0
3508  1
3509  0
3510  1
3511  2
3512  0
3513  1
3514  0
3515  1
3516  0
3517  0
3518  0
3519  0
3520  0
3521  1
3522  0
3523  0
3524  0
3525  0
3526  0
3527  1
3528  1
3529  0
3530  2
3531  0
3532  0
3533  0
3534  1
3535  0
3536  0
3537  0
3538  1
3539  1
3540  0
3541  0
3542  1
3543  0
3544  1
3545  0
3546  0
3547  2
3548  2
3549  0
3550  0
3551  1
3552  0
3553  1
3554  0
3555  0
3556  0
3557  0
3558  1
3559  0
3560  1
3561  0
3562  3
3563  0
3564  1
3565  1
3566  0
3567  0
3568  0
3569  0
3570  0
3571  1
3572  0
3573  1
3574  0
3575  0
3576  0
3577  1
3578  1
3579  0
3580  0
3581  0
3582  1
3583  1
3584  1
3585  0
3586  2
3587  1
3588  2
3589  1
3590  2
3591  0
3592  0
3593  1
3594  0
3595  0
3596  0
3597  0
3598  0
3599  1
3600  1
3601  2
3602  0
3603  1
3604  1
3605  0
3606  0
3607  1
3608  1
3609  0
3610  0
3611  0
3612  0
3613  0
3614  2
3615  1
3616  0
3617  0
3618  0
3619  0
3620  0
3621  0
3622  1
3623  0
3624  1
3625  0
3626  2
3627  0
3628  2
3629  0
3630  1
3631  0
3632  0
3633  3
3634  0
3635  0
3636  1
3637  2
3638  1
3639  0
3640  1
3641  1
3642  2
3643  1
3644  2
3645  0
3646  0
3647  0
3648  0
3649  0
3650  1
3651  2
3652  0
3653  0
3654  0
3655  0
3656  1
3657  0
3658  0
3659  0
3660  0
3661  1
3662  0
3663  0
3664  0
3665  0
3666  0
3667  0
3668  0
3669  1
3670  0
3671  0
3672  0
3673  0
3674  0
3675  0
3676  1
3677  0
3678  0
3679  0
3680  0
3681  0
3682  0
3683  0
3684  0
3685  0
3686  0
3687  0
3688  1
3689  1
3690  1
3691  1
3692  0
3693  0
3694  1
3695  1
3696  0
3697  1
3698  0
3699  1
3700  0
3701  0
3702  2
3703  0
3704  0
3705  1
3706  0
3707  0
3708  1
3709  0
3710  0
3711  0
3712  0
3713  0
3714  1
3715  0
3716  0
3717  0
3718  0
3719  1
3720  0
3721  0
3722  0
3723  1
3724  0
3725  0
3726  0
3727  0
3728  0
3729  0
3730  0
3731  2
3732  0
3733  0
3734  0
3735  1
3736  0
3737  0
3738  1
3739  0
3740  2
3741  0
3742  0
3743  0
3744  0
3745  0
3746  1
3747  2
3748  0
3749  0
3750  0
3751  0
3752  0
3753  0
3754  0
3755  1
3756  1
3757  0
3758  0
3759  0
3760  0
3761  1
3762  1
3763  0
3764  0
3765  1
3766  0
3767  0
3768  0
3769  1
3770  0
3771  0
3772  0
3773  0
3774  0
3775  0
3776  1
3777  0
3778  1
3779  2
3780  0
3781  0
3782  2
3783  0
3784  1
3785  1
3786  0
3787  1
3788  0
3789  0
3790  1
3791  1
3792  0
3793  0
3794  0
3795  0
3796  0
3797  0
3798  0
3799  1
3800  0
3801  1
3802  0
3803  0
3804  0
3805  0
3806  1
3807  0
3808  0
3809  0
3810  1
3811  1
3812  0
3813  0
3814  0
3815  0
3816  0
3817  0
3818  0
3819  1
3820  0
3821  1
3822  1
3823  0
3824  2
3825  1
3826  0
3827  0
3828  0
3829  0
3830  0
3831  0
3832  2
3833  0
3834  0
3835  0
3836  0
3837  0
3838  0
3839  1
3840  0
3841  0
3842  0
3843  0
3844  0
3845  0
3846  0
3847  0
3848  0
3849  0
3850  0
3851  0
3852  0
3853  0
3854  0
3855  0
3856  0
3857  0
3858  0
3859  0
3860  0
3861  0
3862  0
3863  0
3864  0
3865  0
3866  0
3867  0
3868  0
3869  0
3870  0
3871  0
3872  0
3873  0
3874  0
3875  0
3876  0
3877  0
3878  0
3879  0
3880  0
3881  0
3882  0
3883  0
3884  0
3885  0
3886  0
3887  0
3888  0
3889  0
3890  0
3891  0
3892  0
3893  0
3894  0
3895  0
3896  0
3897  0
3898  0
3899  0
3900  0
3901  0
3902  0
3903  0
3904  0
3905  0
3906  0
3907  0
3908  0
3909  0
3910  0
3911  0
3912  0
3913  0
3914  0
3915  0
3916  0
3917  0
3918  0
3919  0
3920  0
3921  0
3922  0
3923  0
3924  0
3925  0
3926  0
3927  0
3928  0
3929  0
3930  0
3931  0
3932  0
3933  0
3934  0
3935  0
3936  0
3937  0
3938  0
3939  0
3940  0
3941  0
3942  0
3943  0
3944  0
3945  0
3946  0
3947  0
3948  0
3949  0
3950  0
3951  0
3952  0
3953  0
3954  0
3955  0
3956  0
3957  0
3958  0
3959  0
3960  0
3961  0
3962  0
3963  0
3964  0
3965  0
3966  0
3967  0
3968  0
3969  0
3970  0
3971  0
3972  0
3973  0
3974  0
3975  0
3976  0
3977  0
3978  0
3979  0
3980  0
3981  0
3982  0
3983  0
3984  0
3985  0
3986  0
3987  0
3988  0
3989  0
3990  0
3991  0
3992  0
3993  0
3994  0
3995  0
3996  0
3997  0
3998  0
3999  0
4000  0
4001  0
4002  0
4003  0
4004  0
4005  0
4006  0
4007  0
4008  0
4009  0
4010  0
4011  0
4012  0
4013  0
4014  0
4015  0
4016  0
4017  0
4018  0
4019  0
4020  0
4021  0
4022  0
4023  0
4024  0
4025  0
4026  0
4027  0
4028  0
4029  0
4030  0
4031  0
4032  0
4033  0
4034  0
4035  0
4036  0
4037  0
4038  0
4039  0
4040  0
4041  0
4042  0
4043  0
4044  0
4045  0
4046  0
4047  0
4048  0
4049  0
4050  0
4051  0
4052  0
4053  0
4054  0
4055  0
4056  0
4057  0
4058  0
4059  0
4060  0
4061  0
4062  0
4063  0
4064  0
4065  0
4066  0
4067  0
4068  0
4069  0
4070  0
4071  0
4072  0
4073  0
4074  0
4075  0
4076  0
4077  0
4078  0
4079  0
4080  0
4081  0
4082  0
4083  0
4084  0
4085  0
4086  0
4087  0
4088  0
4089  0
4090  0
4091  0
4092  0
4093  0
4094  0
4095  0
