0  0
1  0
2  0
3  0
4  0
5  0
6  0
7  0
8  0
9  0
10  0
11  0
12  0
13  0
14  0
15  0
16  0
17  0
18  10
19  57
20  83
21  57
22  29
23  14
24  11
25  17
26  18
27  13
28  16
29  15
30  23
31  16
32  9
33  14
34  11
35  12
36  12
37  24
38  12
39  10
40  17
41  12
42  9
43  5
44  2
45  3
46  3
47  1
48  1
49  0
50  0
51  0
52  0
53  0
54  0
55  0
56  0
57  0
58  0
59  0
60  0
61  0
62  0
63  0
64  0
65  0
66  0
67  0
68  0
69  0
70  0
71  0
72  0
73  0
74  0
75  0
76  0
77  0
78  0
79  0
80  0
81  0
82  0
83  0
84  0
85  0
86  0
87  0
88  0
89  0
90  0
91  0
92  0
93  0
94  0
95  0
96  0
97  0
98  0
99  0
100  0
101  0
102  0
103  0
104  0
105  0
106  0
107  0
108  0
109  0
110  0
111  0
112  0
113  0
114  0
115  0
116  0
117  0
118  0
119  0
120  0
121  0
122  0
123  0
124  0
125  0
126  0
127  0
128  0
129  0
130  0
131  0
132  0
133  0
134  0
135  0
136  0
137  0
138  0
139  0
140  0
141  0
142  0
143  0
144  0
145  0
146  0
147  0
148  0
149  0
150  0
151  0
152  0
153  0
154  0
155  0
156  0
157  0
158  0
159  0
160  0
161  0
162  0
163  0
164  0
165  0
166  0
167  0
168  0
169  0
170  0
171  0
172  0
173  0
174  0
175  0
176  0
177  0
178  1
179  26
180  148
181  312
182  289
183  307
184  770
185  1305
186  1360
187  844
188  457
189  245
190  210
191  211
192  157
193  141
194  149
195  137
196  112
197  121
198  121
199  117
200  107
201  118
202  126
203  131
204  124
205  107
206  121
207  119
208  111
209  105
210  109
211  122
212  122
213  116
214  102
215  136
216  106
217  125
218  112
219  111
220  126
221  92
222  121
223  112
224  121
225  97
226  112
227  105
228  107
229  102
230  90
231  128
232  105
233  125
234  125
235  125
236  118
237  115
238  109
239  109
240  102
241  104
242  114
243  136
244  112
245  114
246  108
247  93
248  120
249  107
250  98
251  110
252  121
253  124
254  111
255  110
256  105
257  118
258  108
259  110
260  105
261  110
262  124
263  99
264  106
265  106
266  105
267  98
268  113
269  105
270  108
271  116
272  107
273  116
274  110
275  99
276  114
277  100
278  127
279  114
280  104
281  106
282  101
283  145
284  106
285  108
286  121
287  118
288  129
289  122
290  113
291  130
292  98
293  106
294  123
295  105
296  108
297  103
298  101
299  108
300  107
301  106
302  108
303  125
304  113
305  114
306  133
307  106
308  104
309  107
310  106
311  110
312  115
313  113
314  118
315  120
316  98
317  140
318  106
319  103
320  120
321  97
322  98
323  117
324  121
325  113
326  115
327  125
328  130
329  101
330  113
331  118
332  100
333  113
334  110
335  115
336  125
337  109
338  109
339  112
340  105
341  109
342  107
343  112
344  113
345  112
346  107
347  97
348  99
349  104
350  136
351  108
352  105
353  112
354  115
355  100
356  98
357  101
358  119
359  107
360  121
361  107
362  123
363  115
364  111
365  136
366  110
367  115
368  116
369  114
370  126
371  127
372  104
373  109
374  121
375  110
376  99
377  120
378  106
379  120
380  114
381  114
382  110
383  114
384  113
385  127
386  113
387  105
388  108
389  113
390  115
391  106
392  101
393  99
394  91
395  115
396  139
397  116
398  117
399  89
400  85
401  115
402  125
403  95
404  113
405  114
406  119
407  101
408  101
409  127
410  94
411  103
412  112
413  110
414  111
415  101
416  92
417  98
418  134
419  110
420  105
421  96
422  133
423  96
424  93
425  121
426  115
427  126
428  112
429  94
430  123
431  123
432  100
433  119
434  114
435  119
436  96
437  107
438  121
439  124
440  111
441  131
442  121
443  92
444  100
445  111
446  101
447  110
448  105
449  127
450  116
451  103
452  112
453  104
454  99
455  122
456  119
457  113
458  112
459  102
460  112
461  128
462  99
463  116
464  108
465  101
466  119
467  108
468  116
469  94
470  109
471  124
472  120
473  118
474  119
475  97
476  87
477  116
478  103
479  124
480  117
481  108
482  114
483  126
484  119
485  110
486  109
487  100
488  107
489  113
490  135
491  103
492  118
493  102
494  114
495  113
496  98
497  114
498  110
499  103
500  85
501  113
502  108
503  113
504  120
505  104
506  106
507  123
508  116
509  117
510  100
511  123
512  121
513  113
514  120
515  141
516  121
517  124
518  116
519  130
520  128
521  100
522  122
523  104
524  103
525  107
526  120
527  102
528  96
529  117
530  113
531  108
532  113
533  98
534  107
535  138
536  109
537  112
538  123
539  106
540  128
541  120
542  85
543  111
544  101
545  113
546  116
547  116
548  125
549  119
550  103
551  96
552  119
553  116
554  111
555  122
556  126
557  114
558  101
559  119
560  98
561  98
562  114
563  109
564  109
565  94
566  119
567  99
568  111
569  111
570  118
571  102
572  106
573  96
574  117
575  85
576  126
577  106
578  124
579  109
580  126
581  133
582  122
583  91
584  110
585  117
586  99
587  106
588  109
589  102
590  128
591  116
592  115
593  97
594  108
595  110
596  114
597  122
598  130
599  118
600  97
601  107
602  105
603  125
604  120
605  111
606  124
607  99
608  108
609  118
610  118
611  101
612  120
613  117
614  104
615  110
616  106
617  103
618  110
619  126
620  119
621  110
622  113
623  133
624  107
625  127
626  115
627  104
628  123
629  126
630  113
631  125
632  102
633  115
634  84
635  112
636  127
637  122
638  135
639  113
640  107
641  104
642  116
643  122
644  108
645  121
646  111
647  111
648  107
649  124
650  112
651  104
652  115
653  112
654  127
655  105
656  125
657  120
658  115
659  123
660  115
661  125
662  115
663  133
664  122
665  119
666  112
667  123
668  104
669  108
670  117
671  114
672  113
673  102
674  99
675  121
676  123
677  110
678  134
679  120
680  120
681  108
682  115
683  116
684  109
685  108
686  119
687  126
688  112
689  134
690  101
691  88
692  115
693  108
694  99
695  114
696  98
697  114
698  116
699  113
700  116
701  124
702  128
703  128
704  115
705  111
706  121
707  122
708  107
709  116
710  123
711  118
712  120
713  110
714  129
715  107
716  116
717  125
718  109
719  111
720  123
721  118
722  106
723  108
724  111
725  117
726  146
727  133
728  110
729  116
730  115
731  113
732  134
733  113
734  123
735  110
736  128
737  116
738  123
739  116
740  96
741  113
742  108
743  124
744  102
745  130
746  134
747  112
748  115
749  112
750  111
751  117
752  108
753  90
754  101
755  144
756  105
757  121
758  110
759  94
760  118
761  119
762  122
763  109
764  103
765  106
766  123
767  99
768  113
769  112
770  114
771  116
772  125
773  117
774  93
775  134
776  107
777  117
778  115
779  103
780  120
781  124
782  103
783  105
784  121
785  136
786  118
787  112
788  119
789  106
790  101
791  99
792  115
793  110
794  101
795  128
796  108
797  111
798  125
799  126
800  103
801  147
802  132
803  98
804  109
805  105
806  91
807  104
808  109
809  101
810  107
811  123
812  131
813  124
814  104
815  125
816  110
817  113
818  123
819  114
820  130
821  114
822  131
823  127
824  100
825  102
826  96
827  104
828  110
829  88
830  114
831  119
832  110
833  95
834  102
835  120
836  94
837  105
838  127
839  120
840  101
841  94
842  111
843  110
844  100
845  102
846  90
847  94
848  117
849  118
850  106
851  100
852  104
853  119
854  102
855  119
856  105
857  120
858  97
859  117
860  112
861  118
862  121
863  117
864  116
865  109
866  113
867  92
868  111
869  99
870  107
871  105
872  126
873  118
874  102
875  114
876  87
877  106
878  115
879  113
880  121
881  104
882  99
883  102
884  99
885  104
886  83
887  118
888  123
889  94
890  104
891  111
892  110
893  114
894  95
895  108
896  101
897  127
898  113
899  124
900  90
901  108
902  97
903  105
904  123
905  112
906  111
907  111
908  144
909  114
910  78
911  107
912  98
913  123
914  113
915  92
916  117
917  101
918  101
919  109
920  128
921  109
922  105
923  115
924  114
925  106
926  101
927  103
928  112
929  112
930  110
931  126
932  123
933  96
934  100
935  95
936  110
937  124
938  106
939  103
940  101
941  109
942  118
943  130
944  113
945  123
946  98
947  119
948  106
949  101
950  128
951  80
952  130
953  123
954  117
955  115
956  102
957  102
958  112
959  113
960  115
961  126
962  111
963  117
964  110
965  116
966  133
967  109
968  106
969  99
970  117
971  101
972  101
973  117
974  123
975  109
976  108
977  122
978  101
979  103
980  92
981  106
982  114
983  109
984  109
985  115
986  116
987  99
988  107
989  95
990  128
991  131
992  117
993  112
994  114
995  106
996  113
997  120
998  99
999  103
1000  123
1001  112
1002  104
1003  104
1004  132
1005  110
1006  119
1007  85
1008  107
1009  121
1010  120
1011  97
1012  116
1013  99
1014  101
1015  97
1016  108
1017  124
1018  105
1019  106
1020  116
1021  122
1022  96
1023  122
1024  111
1025  108
1026  119
1027  108
1028  97
1029  114
1030  101
1031  125
1032  111
1033  113
1034  100
1035  115
1036  120
1037  93
1038  98
1039  115
1040  101
1041  105
1042  112
1043  104
1044  98
1045  102
1046  119
1047  126
1048  104
1049  105
1050  104
1051  109
1052  112
1053  119
1054  115
1055  114
1056  107
1057  120
1058  110
1059  121
1060  105
1061  111
1062  107
1063  107
1064  135
1065  124
1066  117
1067  103
1068  117
1069  110
1070  97
1071  105
1072  98
1073  103
1074  127
1075  112
1076  110
1077  121
1078  115
1079  96
1080  113
1081  112
1082  136
1083  116
1084  114
1085  109
1086  120
1087  92
1088  128
1089  116
1090  111
1091  125
1092  109
1093  96
1094  110
1095  112
1096  124
1097  99
1098  110
1099  108
1100  111
1101  108
1102  105
1103  125
1104  116
1105  109
1106  105
1107  109
1108  102
1109  122
1110  109
1111  98
1112  116
1113  82
1114  102
1115  113
1116  103
1117  112
1118  114
1119  123
1120  114
1121  122
1122  103
1123  114
1124  115
1125  114
1126  98
1127  114
1128  112
1129  121
1130  116
1131  115
1132  101
1133  114
1134  115
1135  118
1136  103
1137  124
1138  133
1139  116
1140  122
1141  115
1142  98
1143  111
1144  132
1145  115
1146  103
1147  143
1148  131
1149  136
1150  113
1151  113
1152  121
1153  106
1154  111
1155  119
1156  128
1157  104
1158  101
1159  109
1160  114
1161  116
1162  101
1163  98
1164  103
1165  114
1166  119
1167  101
1168  104
1169  125
1170  130
1171  112
1172  125
1173  104
1174  114
1175  123
1176  118
1177  111
1178  95
1179  125
1180  110
1181  119
1182  114
1183  128
1184  117
1185  114
1186  109
1187  107
1188  130
1189  107
1190  113
1191  114
1192  117
1193  120
1194  86
1195  113
1196  109
1197  103
1198  123
1199  130
1200  121
1201  121
1202  102
1203  105
1204  109
1205  104
1206  99
1207  105
1208  130
1209  128
1210  134
1211  128
1212  106
1213  113
1214  114
1215  113
1216  124
1217  120
1218  102
1219  121
1220  128
1221  97
1222  140
1223  109
1224  114
1225  130
1226  108
1227  138
1228  116
1229  138
1230  92
1231  104
1232  108
1233  113
1234  121
1235  118
1236  109
1237  125
1238  126
1239  110
1240  113
1241  94
1242  104
1243  113
1244  112
1245  109
1246  132
1247  122
1248  120
1249  130
1250  107
1251  130
1252  124
1253  123
1254  114
1255  115
1256  122
1257  127
1258  123
1259  129
1260  115
1261  104
1262  109
1263  125
1264  115
1265  123
1266  112
1267  105
1268  90
1269  115
1270  98
1271  113
1272  121
1273  124
1274  98
1275  119
1276  102
1277  90
1278  126
1279  122
1280  128
1281  106
1282  112
1283  120
1284  119
1285  102
1286  119
1287  101
1288  127
1289  96
1290  121
1291  106
1292  105
1293  125
1294  124
1295  125
1296  115
1297  130
1298  98
1299  120
1300  114
1301  105
1302  126
1303  111
1304  107
1305  107
1306  124
1307  103
1308  114
1309  118
1310  97
1311  108
1312  119
1313  131
1314  109
1315  121
1316  117
1317  128
1318  106
1319  113
1320  101
1321  132
1322  121
1323  105
1324  105
1325  92
1326  126
1327  117
1328  115
1329  95
1330  115
1331  118
1332  116
1333  112
1334  114
1335  121
1336  107
1337  118
1338  104
1339  126
1340  120
1341  101
1342  104
1343  96
1344  108
1345  101
1346  118
1347  125
1348  114
1349  125
1350  120
1351  119
1352  132
1353  120
1354  115
1355  112
1356  106
1357  110
1358  106
1359  114
1360  89
1361  122
1362  135
1363  112
1364  104
1365  108
1366  90
1367  122
1368  131
1369  121
1370  112
1371  104
1372  119
1373  118
1374  112
1375  110
1376  127
1377  99
1378  124
1379  114
1380  105
1381  125
1382  114
1383  100
1384  108
1385  98
1386  115
1387  117
1388  104
1389  102
1390  113
1391  112
1392  117
1393  121
1394  111
1395  133
1396  135
1397  117
1398  126
1399  124
1400  106
1401  116
1402  119
1403  105
1404  112
1405  104
1406  111
1407  114
1408  113
1409  119
1410  100
1411  106
1412  103
1413  128
1414  106
1415  117
1416  105
1417  106
1418  101
1419  125
1420  115
1421  104
1422  134
1423  88
1424  94
1425  124
1426  114
1427  121
1428  125
1429  118
1430  109
1431  117
1432  103
1433  121
1434  102
1435  125
1436  87
1437  123
1438  120
1439  131
1440  105
1441  116
1442  119
1443  115
1444  108
1445  120
1446  108
1447  102
1448  104
1449  108
1450  126
1451  118
1452  129
1453  110
1454  110
1455  106
1456  103
1457  118
1458  103
1459  107
1460  117
1461  103
1462  118
1463  121
1464  105
1465  125
1466  125
1467  113
1468  111
1469  94
1470  121
1471  106
1472  92
1473  114
1474  110
1475  120
1476  110
1477  133
1478  125
1479  124
1480  113
1481  121
1482  127
1483  108
1484  113
1485  100
1486  108
1487  109
1488  113
1489  113
1490  122
1491  96
1492  122
1493  120
1494  127
1495  131
1496  110
1497  126
1498  110
1499  106
1500  105
1501  119
1502  117
1503  103
1504  107
1505  112
1506  102
1507  109
1508  110
1509  109
1510  92
1511  121
1512  111
1513  116
1514  141
1515  120
1516  112
1517  92
1518  126
1519  118
1520  123
1521  98
1522  112
1523  99
1524  113
1525  114
1526  107
1527  110
1528  116
1529  132
1530  104
1531  111
1532  105
1533  109
1534  116
1535  117
1536  109
1537  121
1538  123
1539  97
1540  119
1541  114
1542  108
1543  109
1544  93
1545  118
1546  112
1547  121
1548  105
1549  113
1550  99
1551  117
1552  135
1553  127
1554  100
1555  122
1556  113
1557  113
1558  127
1559  139
1560  106
1561  121
1562  111
1563  99
1564  102
1565  113
1566  103
1567  125
1568  110
1569  106
1570  115
1571  99
1572  113
1573  117
1574  111
1575  132
1576  110
1577  109
1578  98
1579  113
1580  108
1581  107
1582  123
1583  119
1584  109
1585  112
1586  98
1587  127
1588  121
1589  101
1590  118
1591  107
1592  100
1593  125
1594  118
1595  109
1596  112
1597  101
1598  108
1599  119
1600  111
1601  106
1602  120
1603  122
1604  105
1605  119
1606  117
1607  120
1608  107
1609  99
1610  127
1611  126
1612  101
1613  125
1614  113
1615  117
1616  113
1617  105
1618  115
1619  115
1620  127
1621  125
1622  109
1623  125
1624  114
1625  105
1626  108
1627  105
1628  109
1629  103
1630  119
1631  113
1632  108
1633  111
1634  114
1635  124
1636  110
1637  107
1638  109
1639  93
1640  112
1641  107
1642  126
1643  120
1644  105
1645  101
1646  124
1647  113
1648  121
1649  97
1650  126
1651  110
1652  120
1653  105
1654  100
1655  106
1656  119
1657  108
1658  114
1659  110
1660  137
1661  122
1662  119
1663  111
1664  108
1665  104
1666  98
1667  130
1668  113
1669  115
1670  114
1671  115
1672  100
1673  98
1674  97
1675  120
1676  118
1677  107
1678  121
1679  102
1680  119
1681  99
1682  103
1683  100
1684  127
1685  122
1686  130
1687  127
1688  113
1689  99
1690  127
1691  112
1692  123
1693  126
1694  98
1695  124
1696  100
1697  127
1698  133
1699  114
1700  90
1701  115
1702  127
1703  110
1704  114
1705  126
1706  97
1707  111
1708  118
1709  113
1710  100
1711  108
1712  119
1713  98
1714  105
1715  120
1716  93
1717  98
1718  115
1719  94
1720  105
1721  114
1722  118
1723  121
1724  132
1725  114
1726  136
1727  111
1728  114
1729  99
1730  112
1731  140
1732  117
1733  111
1734  111
1735  113
1736  114
1737  144
1738  101
1739  130
1740  105
1741  116
1742  107
1743  128
1744  91
1745  100
1746  118
1747  111
1748  125
1749  105
1750  109
1751  112
1752  123
1753  113
1754  108
1755  109
1756  114
1757  110
1758  108
1759  126
1760  112
1761  116
1762  125
1763  118
1764  115
1765  135
1766  119
1767  111
1768  123
1769  111
1770  109
1771  131
1772  107
1773  89
1774  117
1775  104
1776  123
1777  128
1778  95
1779  102
1780  132
1781  108
1782  95
1783  121
1784  95
1785  113
1786  102
1787  96
1788  111
1789  110
1790  113
1791  111
1792  96
1793  121
1794  104
1795  111
1796  96
1797  113
1798  99
1799  95
1800  101
1801  100
1802  92
1803  117
1804  83
1805  126
1806  88
1807  112
1808  105
1809  112
1810  94
1811  104
1812  114
1813  121
1814  112
1815  127
1816  120
1817  102
1818  108
1819  121
1820  105
1821  119
1822  99
1823  131
1824  111
1825  118
1826  107
1827  86
1828  101
1829  109
1830  111
1831  121
1832  126
1833  98
1834  102
1835  91
1836  107
1837  97
1838  115
1839  117
1840  118
1841  105
1842  114
1843  112
1844  99
1845  100
1846  113
1847  121
1848  121
1849  115
1850  113
1851  119
1852  104
1853  112
1854  109
1855  109
1856  110
1857  126
1858  114
1859  127
1860  111
1861  94
1862  100
1863  97
1864  90
1865  102
1866  99
1867  108
1868  113
1869  113
1870  113
1871  90
1872  115
1873  119
1874  91
1875  117
1876  116
1877  112
1878  110
1879  116
1880  106
1881  123
1882  107
1883  95
1884  108
1885  115
1886  112
1887  104
1888  121
1889  136
1890  93
1891  107
1892  121
1893  120
1894  102
1895  102
1896  90
1897  115
1898  101
1899  104
1900  114
1901  112
1902  111
1903  95
1904  91
1905  121
1906  116
1907  107
1908  111
1909  106
1910  123
1911  113
1912  116
1913  117
1914  107
1915  113
1916  101
1917  116
1918  110
1919  101
1920  138
1921  118
1922  112
1923  129
1924  114
1925  118
1926  122
1927  107
1928  115
1929  119
1930  113
1931  127
1932  113
1933  133
1934  109
1935  118
1936  122
1937  122
1938  106
1939  102
1940  110
1941  115
1942  100
1943  113
1944  119
1945  117
1946  106
1947  95
1948  124
1949  102
1950  101
1951  131
1952  118
1953  110
1954  120
1955  111
1956  108
1957  109
1958  108
1959  109
1960  117
1961  125
1962  98
1963  96
1964  127
1965  120
1966  124
1967  127
1968  115
1969  103
1970  128
1971  104
1972  99
1973  109
1974  105
1975  111
1976  109
1977  130
1978  118
1979  109
1980  123
1981  106
1982  119
1983  123
1984  106
1985  104
1986  124
1987  113
1988  106
1989  123
1990  114
1991  110
1992  115
1993  120
1994  113
1995  107
1996  118
1997  122
1998  113
1999  125
2000  121
2001  102
2002  112
2003  87
2004  125
2005  112
2006  138
2007  126
2008  113
2009  116
2010  120
2011  127
2012  112
2013  121
2014  113
2015  126
2016  126
2017  121
2018  96
2019  130
2020  118
2021  107
2022  146
2023  104
2024  131
2025  96
2026  121
2027  110
2028  110
2029  103
2030  106
2031  116
2032  108
2033  137
2034  126
2035  122
2036  105
2037  117
2038  118
2039  121
2040  98
2041  111
2042  114
2043  127
2044  118
2045  136
2046  109
2047  123
2048  120
2049  112
2050  127
2051  107
2052  120
2053  113
2054  108
2055  126
2056  111
2057  95
2058  130
2059  106
2060  131
2061  115
2062  94
2063  113
2064  112
2065  119
2066  92
2067  119
2068  103
2069  124
2070  119
2071  98
2072  128
2073  105
2074  112
2075  115
2076  100
2077  114
2078  127
2079  106
2080  109
2081  111
2082  122
2083  104
2084  130
2085  98
2086  126
2087  125
2088  103
2089  94
2090  115
2091  101
2092  116
2093  108
2094  106
2095  112
2096  104
2097  133
2098  145
2099  129
2100  118
2101  118
2102  95
2103  110
2104  113
2105  102
2106  117
2107  117
2108  125
2109  121
2110  131
2111  113
2112  103
2113  100
2114  110
2115  127
2116  143
2117  112
2118  120
2119  115
2120  109
2121  101
2122  111
2123  108
2124  141
2125  125
2126  105
2127  104
2128  122
2129  138
2130  118
2131  135
2132  110
2133  114
2134  126
2135  94
2136  115
2137  118
2138  118
2139  129
2140  99
2141  97
2142  135
2143  92
2144  100
2145  112
2146  99
2147  115
2148  128
2149  97
2150  121
2151  93
2152  107
2153  103
2154  106
2155  139
2156  112
2157  120
2158  113
2159  121
2160  113
2161  99
2162  107
2163  121
2164  114
2165  123
2166  104
2167  112
2168  111
2169  104
2170  128
2171  103
2172  103
2173  107
2174  116
2175  104
2176  123
2177  115
2178  114
2179  124
2180  106
2181  124
2182  105
2183  110
2184  119
2185  107
2186  106
2187  116
2188  118
2189  139
2190  125
2191  112
2192  118
2193  121
2194  117
2195  109
2196  122
2197  88
2198  122
2199  124
2200  103
2201  132
2202  107
2203  120
2204  104
2205  108
2206  114
2207  108
2208  111
2209  94
2210  114
2211  123
2212  117
2213  111
2214  119
2215  111
2216  109
2217  115
2218  119
2219  117
2220  113
2221  114
2222  104
2223  118
2224  117
2225  115
2226  127
2227  109
2228  119
2229  101
2230  119
2231  133
2232  109
2233  127
2234  109
2235  98
2236  111
2237  111
2238  106
2239  112
2240  110
2241  117
2242  116
2243  107
2244  114
2245  103
2246  117
2247  105
2248  102
2249  109
2250  108
2251  119
2252  109
2253  114
2254  109
2255  106
2256  108
2257  101
2258  122
2259  122
2260  116
2261  120
2262  110
2263  110
2264  122
2265  106
2266  126
2267  108
2268  100
2269  121
2270  115
2271  110
2272  115
2273  115
2274  114
2275  106
2276  125
2277  119
2278  114
2279  119
2280  114
2281  135
2282  107
2283  119
2284  106
2285  122
2286  105
2287  108
2288  101
2289  89
2290  121
2291  120
2292  113
2293  111
2294  101
2295  135
2296  117
2297  103
2298  108
2299  117
2300  111
2301  145
2302  98
2303  99
2304  118
2305  103
2306  111
2307  133
2308  99
2309  105
2310  100
2311  125
2312  106
2313  112
2314  116
2315  99
2316  110
2317  135
2318  122
2319  97
2320  113
2321  104
2322  118
2323  132
2324  91
2325  108
2326  115
2327  106
2328  112
2329  112
2330  122
2331  103
2332  115
2333  127
2334  124
2335  111
2336  98
2337  110
2338  130
2339  109
2340  120
2341  122
2342  93
2343  117
2344  119
2345  109
2346  106
2347  112
2348  105
2349  109
2350  123
2351  128
2352  98
2353  110
2354  119
2355  117
2356  130
2357  112
2358  124
2359  103
2360  108
2361  115
2362  124
2363  113
2364  107
2365  109
2366  133
2367  111
2368  121
2369  114
2370  126
2371  118
2372  96
2373  111
2374  118
2375  124
2376  114
2377  123
2378  99
2379  101
2380  107
2381  116
2382  126
2383  116
2384  102
2385  118
2386  94
2387  125
2388  106
2389  116
2390  112
2391  112
2392  116
2393  112
2394  120
2395  124
2396  100
2397  109
2398  115
2399  115
2400  115
2401  128
2402  116
2403  115
2404  88
2405  122
2406  101
2407  139
2408  103
2409  110
2410  112
2411  104
2412  112
2413  111
2414  110
2415  119
2416  107
2417  94
2418  110
2419  110
2420  135
2421  121
2422  110
2423  111
2424  120
2425  103
2426  109
2427  118
2428  105
2429  94
2430  97
2431  114
2432  111
2433  96
2434  109
2435  106
2436  97
2437  111
2438  102
2439  108
2440  129
2441  118
2442  127
2443  122
2444  137
2445  113
2446  114
2447  121
2448  118
2449  133
2450  115
2451  116
2452  115
2453  116
2454  112
2455  115
2456  99
2457  117
2458  116
2459  122
2460  120
2461  103
2462  116
2463  89
2464  116
2465  118
2466  115
2467  110
2468  110
2469  95
2470  125
2471  104
2472  116
2473  107
2474  110
2475  126
2476  113
2477  113
2478  95
2479  124
2480  109
2481  128
2482  106
2483  112
2484  101
2485  114
2486  104
2487  112
2488  127
2489  130
2490  114
2491  101
2492  106
2493  122
2494  98
2495  125
2496  135
2497  100
2498  96
2499  116
2500  97
2501  94
2502  114
2503  121
2504  104
2505  109
2506  109
2507  128
2508  114
2509  108
2510  116
2511  113
2512  112
2513  114
2514  91
2515  110
2516  124
2517  114
2518  121
2519  107
2520  126
2521  116
2522  132
2523  93
2524  106
2525  119
2526  114
2527  113
2528  92
2529  104
2530  84
2531  110
2532  111
2533  128
2534  117
2535  114
2536  99
2537  103
2538  107
2539  106
2540  129
2541  115
2542  103
2543  103
2544  110
2545  111
2546  108
2547  113
2548  91
2549  146
2550  115
2551  116
2552  116
2553  120
2554  91
2555  106
2556  108
2557  107
2558  117
2559  90
2560  105
2561  102
2562  99
2563  112
2564  115
2565  117
2566  116
2567  112
2568  117
2569  111
2570  120
2571  112
2572  126
2573  110
2574  131
2575  109
2576  113
2577  115
2578  121
2579  109
2580  111
2581  105
2582  109
2583  123
2584  118
2585  120
2586  108
2587  103
2588  105
2589  117
2590  130
2591  113
2592  101
2593  108
2594  126
2595  104
2596  112
2597  92
2598  101
2599  103
2600  102
2601  113
2602  112
2603  101
2604  96
2605  98
2606  121
2607  122
2608  119
2609  125
2610  122
2611  121
2612  89
2613  99
2614  91
2615  113
2616  92
2617  92
2618  109
2619  104
2620  113
2621  106
2622  93
2623  114
2624  111
2625  108
2626  117
2627  112
2628  101
2629  110
2630  92
2631  111
2632  87
2633  113
2634  122
2635  128
2636  97
2637  119
2638  118
2639  109
2640  117
2641  120
2642  109
2643  107
2644  126
2645  104
2646  108
2647  105
2648  115
2649  91
2650  101
2651  114
2652  106
2653  107
2654  110
2655  138
2656  117
2657  98
2658  103
2659  112
2660  99
2661  119
2662  119
2663  107
2664  104
2665  113
2666  119
2667  109
2668  121
2669  112
2670  106
2671  122
2672  120
2673  126
2674  111
2675  106
2676  102
2677  119
2678  111
2679  113
2680  103
2681  105
2682  89
2683  112
2684  111
2685  107
2686  129
2687  96
2688  112
2689  97
2690  98
2691  104
2692  111
2693  110
2694  106
2695  125
2696  97
2697  118
2698  119
2699  105
2700  108
2701  108
2702  117
2703  127
2704  104
2705  97
2706  92
2707  117
2708  131
2709  122
2710  114
2711  118
2712  123
2713  131
2714  113
2715  79
2716  133
2717  122
2718  118
2719  111
2720  106
2721  124
2722  120
2723  96
2724  111
2725  123
2726  94
2727  108
2728  102
2729  87
2730  93
2731  131
2732  119
2733  122
2734  98
2735  116
2736  79
2737  110
2738  115
2739  128
2740  100
2741  109
2742  105
2743  111
2744  111
2745  133
2746  112
2747  95
2748  114
2749  107
2750  96
2751  119
2752  120
2753  115
2754  131
2755  114
2756  113
2757  114
2758  107
2759  112
2760  91
2761  107
2762  121
2763  118
2764  126
2765  130
2766  118
2767  105
2768  122
2769  103
2770  109
2771  100
2772  108
2773  92
2774  101
2775  115
2776  110
2777  107
2778  95
2779  115
2780  111
2781  106
2782  118
2783  115
2784  109
2785  117
2786  110
2787  120
2788  95
2789  111
2790  107
2791  89
2792  115
2793  116
2794  136
2795  113
2796  124
2797  112
2798  110
2799  127
2800  103
2801  103
2802  144
2803  108
2804  98
2805  111
2806  104
2807  112
2808  112
2809  110
2810  109
2811  115
2812  107
2813  123
2814  106
2815  110
2816  107
2817  106
2818  102
2819  113
2820  132
2821  115
2822  107
2823  109
2824  116
2825  104
2826  119
2827  143
2828  120
2829  116
2830  121
2831  129
2832  108
2833  98
2834  93
2835  111
2836  114
2837  114
2838  114
2839  127
2840  127
2841  114
2842  121
2843  125
2844  113
2845  105
2846  117
2847  113
2848  127
2849  100
2850  105
2851  123
2852  124
2853  125
2854  112
2855  105
2856  129
2857  113
2858  111
2859  129
2860  113
2861  136
2862  138
2863  115
2864  117
2865  122
2866  138
2867  120
2868  112
2869  106
2870  131
2871  106
2872  113
2873  112
2874  117
2875  91
2876  110
2877  121
2878  106
2879  124
2880  116
2881  107
2882  111
2883  115
2884  116
2885  110
2886  115
2887  113
2888  119
2889  121
2890  104
2891  124
2892  109
2893  130
2894  122
2895  97
2896  113
2897  97
2898  128
2899  124
2900  116
2901  131
2902  113
2903  127
2904  128
2905  117
2906  94
2907  104
2908  141
2909  127
2910  104
2911  110
2912  122
2913  117
2914  125
2915  104
2916  99
2917  105
2918  120
2919  130
2920  112
2921  107
2922  112
2923  118
2924  123
2925  97
2926  118
2927  128
2928  114
2929  109
2930  122
2931  119
2932  113
2933  113
2934  93
2935  111
2936  117
2937  124
2938  107
2939  143
2940  97
2941  109
2942  113
2943  97
2944  121
2945  117
2946  109
2947  121
2948  125
2949  108
2950  134
2951  120
2952  139
2953  116
2954  136
2955  118
2956  138
2957  128
2958  115
2959  102
2960  141
2961  108
2962  117
2963  111
2964  124
2965  108
2966  112
2967  118
2968  109
2969  99
2970  117
2971  125
2972  115
2973  119
2974  104
2975  118
2976  130
2977  111
2978  110
2979  115
2980  122
2981  104
2982  122
2983  108
2984  109
2985  114
2986  119
2987  115
2988  126
2989  108
2990  115
2991  104
2992  122
2993  112
2994  111
2995  110
2996  123
2997  125
2998  119
2999  128
3000  103
3001  129
3002  121
3003  123
3004  117
3005  99
3006  140
3007  119
3008  100
3009  134
3010  100
3011  116
3012  96
3013  122
3014  105
3015  99
3016  128
3017  131
3018  102
3019  109
3020  105
3021  103
3022  103
3023  135
3024  134
3025  107
3026  117
3027  122
3028  134
3029  111
3030  107
3031  105
3032  116
3033  116
3034  118
3035  109
3036  114
3037  126
3038  123
3039  106
3040  106
3041  118
3042  123
3043  108
3044  117
3045  153
3046  108
3047  119
3048  125
3049  101
3050  115
3051  122
3052  106
3053  107
3054  114
3055  126
3056  107
3057  108
3058  117
3059  119
3060  109
3061  86
3062  105
3063  114
3064  99
3065  122
3066  95
3067  103
3068  106
3069  99
3070  110
3071  98
3072  122
3073  105
3074  105
3075  118
3076  123
3077  127
3078  123
3079  96
3080  126
3081  125
3082  116
3083  106
3084  120
3085  111
3086  140
3087  111
3088  101
3089  98
3090  105
3091  108
3092  106
3093  97
3094  114
3095  96
3096  122
3097  115
3098  128
3099  106
3100  106
3101  119
3102  114
3103  130
3104  116
3105  104
3106  111
3107  92
3108  121
3109  125
3110  129
3111  119
3112  116
3113  128
3114  119
3115  100
3116  125
3117  107
3118  96
3119  107
3120  120
3121  123
3122  102
3123  127
3124  104
3125  117
3126  100
3127  121
3128  118
3129  106
3130  102
3131  107
3132  127
3133  118
3134  135
3135  123
3136  113
3137  105
3138  119
3139  114
3140  113
3141  116
3142  105
3143  130
3144  126
3145  114
3146  132
3147  113
3148  109
3149  106
3150  121
3151  120
3152  122
3153  105
3154  95
3155  115
3156  145
3157  133
3158  113
3159  141
3160  111
3161  113
3162  116
3163  128
3164  107
3165  107
3166  103
3167  139
3168  126
3169  115
3170  85
3171  121
3172  122
3173  122
3174  114
3175  94
3176  114
3177  102
3178  104
3179  117
3180  102
3181  109
3182  121
3183  110
3184  120
3185  129
3186  100
3187  118
3188  110
3189  117
3190  104
3191  105
3192  104
3193  115
3194  101
3195  101
3196  119
3197  110
3198  116
3199  110
3200  100
3201  120
3202  106
3203  93
3204  122
3205  105
3206  108
3207  119
3208  116
3209  119
3210  119
3211  101
3212  110
3213  113
3214  108
3215  93
3216  95
3217  110
3218  113
3219  112
3220  109
3221  118
3222  106
3223  91
3224  117
3225  104
3226  115
3227  129
3228  128
3229  120
3230  128
3231  93
3232  121
3233  98
3234  118
3235  105
3236  119
3237  118
3238  120
3239  124
3240  121
3241  132
3242  102
3243  141
3244  114
3245  107
3246  127
3247  112
3248  112
3249  118
3250  127
3251  109
3252  107
3253  117
3254  98
3255  121
3256  102
3257  112
3258  110
3259  123
3260  117
3261  129
3262  109
3263  87
3264  104
3265  114
3266  120
3267  125
3268  95
3269  129
3270  103
3271  109
3272  103
3273  114
3274  99
3275  110
3276  94
3277  113
3278  104
3279  99
3280  125
3281  118
3282  137
3283  85
3284  125
3285  124
3286  118
3287  115
3288  122
3289  133
3290  86
3291  112
3292  108
3293  102
3294  92
3295  95
3296  131
3297  125
3298  116
3299  120
3300  121
3301  115
3302  110
3303  118
3304  104
3305  124
3306  125
3307  102
3308  91
3309  117
3310  92
3311  125
3312  109
3313  102
3314  130
3315  102
3316  103
3317  127
3318  106
3319  139
3320  126
3321  119
3322  107
3323  118
3324  95
3325  119
3326  115
3327  107
3328  111
3329  110
3330  103
3331  103
3332  114
3333  104
3334  99
3335  111
3336  108
3337  124
3338  102
3339  113
3340  109
3341  104
3342  104
3343  110
3344  94
3345  128
3346  125
3347  108
3348  111
3349  107
3350  107
3351  110
3352  110
3353  124
3354  108
3355  114
3356  123
3357  111
3358  106
3359  95
3360  121
3361  127
3362  122
3363  102
3364  120
3365  106
3366  125
3367  132
3368  118
3369  112
3370  128
3371  119
3372  137
3373  131
3374  111
3375  118
3376  104
3377  129
3378  110
3379  108
3380  108
3381  105
3382  111
3383  98
3384  126
3385  107
3386  97
3387  120
3388  107
3389  99
3390  104
3391  118
3392  133
3393  120
3394  129
3395  129
3396  102
3397  99
3398  109
3399  115
3400  108
3401  125
3402  105
3403  114
3404  117
3405  111
3406  99
3407  118
3408  113
3409  100
3410  106
3411  104
3412  114
3413  144
3414  118
3415  122
3416  119
3417  93
3418  94
3419  105
3420  109
3421  131
3422  138
3423  102
3424  120
3425  128
3426  107
3427  107
3428  123
3429  115
3430  102
3431  102
3432  109
3433  100
3434  123
3435  113
3436  126
3437  130
3438  99
3439  105
3440  98
3441  115
3442  124
3443  104
3444  118
3445  127
3446  125
3447  98
3448  120
3449  136
3450  93
3451  101
3452  137
3453  116
3454  111
3455  106
3456  92
3457  97
3458  113
3459  130
3460  116
3461  127
3462  116
3463  125
3464  118
3465  120
3466  121
3467  99
3468  103
3469  108
3470  124
3471  113
3472  87
3473  112
3474  70
3475  69
3476  57
3477  40
3478  41
3479  20
3480  8
3481  9
3482  4
3483  1
3484  1
3485  1
3486  0
3487  0
3488  0
3489  0
3490  0
3491  0
3492  0
3493  0
3494  0
3495  0
3496  0
3497  0
3498  0
3499  0
3500  0
3501  0
3502  0
3503  0
3504  0
3505  0
3506  0
3507  0
3508  0
3509  0
3510  0
3511  0
3512  0
3513  0
3514  0
3515  0
3516  0
3517  0
3518  0
3519  0
3520  0
3521  0
3522  0
3523  0
3524  0
3525  0
3526  0
3527  0
3528  0
3529  0
3530  0
3531  0
3532  0
3533  0
3534  0
3535  0
3536  0
3537  0
3538  0
3539  0
3540  0
3541  0
3542  0
3543  0
3544  0
3545  0
3546  0
3547  0
3548  0
3549  0
3550  0
3551  0
3552  0
3553  0
3554  0
3555  0
3556  0
3557  0
3558  0
3559  0
3560  0
3561  0
3562  0
3563  0
3564  0
3565  0
3566  0
3567  0
3568  0
3569  0
3570  0
3571  0
3572  0
3573  0
3574  0
3575  0
3576  0
3577  0
3578  0
3579  0
3580  0
3581  0
3582  0
3583  0
3584  0
3585  0
3586  0
3587  0
3588  0
3589  0
3590  0
3591  0
3592  0
3593  0
3594  0
3595  0
3596  0
3597  0
3598  0
3599  0
3600  0
3601  0
3602  0
3603  0
3604  0
3605  0
3606  0
3607  0
3608  0
3609  0
3610  0
3611  0
3612  0
3613  0
3614  0
3615  0
3616  0
3617  0
3618  0
3619  0
3620  0
3621  0
3622  0
3623  0
3624  0
3625  0
3626  0
3627  0
3628  0
3629  0
3630  0
3631  0
3632  0
3633  0
3634  0
3635  0
3636  0
3637  0
3638  0
3639  0
3640  0
3641  0
3642  0
3643  0
3644  0
3645  0
3646  0
3647  0
3648  0
3649  0
3650  0
3651  0
3652  0
3653  0
3654  0
3655  0
3656  0
3657  0
3658  0
3659  0
3660  0
3661  0
3662  0
3663  0
3664  0
3665  0
3666  0
3667  0
3668  0
3669  0
3670  0
3671  0
3672  0
3673  0
3674  0
3675  0
3676  0
3677  0
3678  0
3679  0
3680  0
3681  0
3682  0
3683  0
3684  0
3685  0
3686  0
3687  0
3688  0
3689  0
3690  0
3691  0
3692  0
3693  0
3694  0
3695  0
3696  0
3697  0
3698  0
3699  0
3700  0
3701  0
3702  0
3703  0
3704  0
3705  0
3706  0
3707  0
3708  0
3709  0
3710  0
3711  0
3712  0
3713  0
3714  0
3715  0
3716  0
3717  0
3718  0
3719  0
3720  0
3721  0
3722  0
3723  0
3724  0
3725  0
3726  0
3727  0
3728  0
3729  0
3730  0
3731  0
3732  0
3733  0
3734  0
3735  0
3736  0
3737  0
3738  0
3739  0
3740  0
3741  0
3742  0
3743  0
3744  0
3745  0
3746  0
3747  0
3748  0
3749  0
3750  0
3751  0
3752  0
3753  0
3754  0
3755  0
3756  0
3757  0
3758  0
3759  0
3760  0
3761  0
3762  0
3763  0
3764  0
3765  0
3766  0
3767  0
3768  0
3769  0
3770  0
3771  0
3772  0
3773  0
3774  0
3775  0
3776  0
3777  0
3778  0
3779  0
3780  0
3781  0
3782  0
3783  0
3784  0
3785  0
3786  0
3787  0
3788  0
3789  0
3790  0
3791  0
3792  0
3793  0
3794  0
3795  0
3796  0
3797  0
3798  0
3799  0
3800  0
3801  0
3802  0
3803  0
3804  0
3805  0
3806  0
3807  0
3808  0
3809  0
3810  0
3811  0
3812  0
3813  0
3814  0
3815  0
3816  0
3817  0
3818  0
3819  0
3820  0
3821  0
3822  0
3823  0
3824  0
3825  0
3826  0
3827  0
3828  0
3829  0
3830  0
3831  0
3832  0
3833  0
3834  0
3835  0
3836  0
3837  0
3838  0
3839  0
3840  0
3841  0
3842  0
3843  0
3844  0
3845  0
3846  0
3847  0
3848  0
3849  0
3850  0
3851  0
3852  0
3853  0
3854  0
3855  0
3856  0
3857  0
3858  0
3859  0
3860  0
3861  0
3862  0
3863  0
3864  0
3865  0
3866  0
3867  0
3868  0
3869  0
3870  0
3871  0
3872  0
3873  0
3874  0
3875  0
3876  0
3877  0
3878  0
3879  0
3880  0
3881  0
3882  0
3883  0
3884  0
3885  0
3886  0
3887  0
3888  0
3889  0
3890  0
3891  0
3892  0
3893  0
3894  0
3895  0
3896  0
3897  0
3898  0
3899  0
3900  0
3901  0
3902  0
3903  0
3904  0
3905  0
3906  0
3907  0
3908  0
3909  0
3910  0
3911  0
3912  0
3913  0
3914  0
3915  0
3916  0
3917  0
3918  0
3919  0
3920  0
3921  0
3922  0
3923  0
3924  0
3925  0
3926  0
3927  0
3928  0
3929  0
3930  0
3931  0
3932  0
3933  0
3934  0
3935  0
3936  0
3937  0
3938  0
3939  0
3940  0
3941  0
3942  0
3943  0
3944  0
3945  0
3946  0
3947  0
3948  0
3949  0
3950  0
3951  0
3952  0
3953  0
3954  0
3955  0
3956  0
3957  0
3958  0
3959  0
3960  0
3961  0
3962  0
3963  0
3964  0
3965  0
3966  0
3967  0
3968  0
3969  0
3970  0
3971  0
3972  0
3973  0
3974  0
3975  0
3976  0
3977  0
3978  0
3979  0
3980  0
3981  0
3982  0
3983  0
3984  0
3985  0
3986  0
3987  0
3988  0
3989  0
3990  0
3991  0
3992  0
3993  0
3994  0
3995  0
3996  0
3997  0
3998  0
3999  0
4000  0
4001  0
4002  0
4003  0
4004  0
4005  0
4006  0
4007  0
4008  0
4009  0
4010  0
4011  0
4012  0
4013  0
4014  0
4015  0
4016  0
4017  0
4018  0
4019  0
4020  0
4021  0
4022  0
4023  0
4024  0
4025  0
4026  0
4027  0
4028  0
4029  0
4030  0
4031  0
4032  0
4033  0
4034  0
4035  0
4036  0
4037  0
4038  0
4039  0
4040  0
4041  0
4042  0
4043  0
4044  0
4045  0
4046  0
4047  0
4048  0
4049  0
4050  0
4051  0
4052  0
4053  0
4054  0
4055  0
4056  0
4057  0
4058  0
4059  0
4060  0
4061  0
4062  0
4063  0
4064  0
4065  0
4066  0
4067  0
4068  0
4069  0
4070  0
4071  0
4072  0
4073  0
4074  0
4075  0
4076  0
4077  0
4078  0
4079  0
4080  0
4081  0
4082  0
4083  0
4084  0
4085  0
4086  0
4087  0
4088  0
4089  0
4090  0
4091  0
4092  0
4093  0
4094  0
4095  0
