0  57
1  70
2  74
3  105
4  121
5  162
6  171
7  219
8  225
9  241
10  258
11  285
12  306
13  339
14  324
15  388
16  369
17  375
18  318
19  333
20  278
21  289
22  292
23  235
24  207
25  191
26  174
27  155
28  130
29  93
30  95
31  60
32  50
33  45
34  30
35  26
36  25
37  20
38  8
39  9
40  11
41  4
42  2
43  1
44  1
45  2
46  0
47  1
48  0
49  0
50  1
51  0
52  0
53  0
54  0
55  0
56  0
57  0
58  0
59  0
60  0
61  0
62  0
63  0
64  0
65  0
66  0
67  0
68  0
69  0
70  0
71  0
72  0
73  0
74  0
75  0
76  0
77  0
78  0
79  0
80  0
81  0
82  0
83  0
84  0
85  0
86  0
87  0
88  0
89  0
90  0
91  0
92  0
93  0
94  0
95  0
96  0
97  0
98  0
99  0
100  0
101  0
102  0
103  0
104  0
105  0
106  0
107  0
108  0
109  0
110  0
111  0
112  0
113  0
114  0
115  0
116  0
117  0
118  0
119  0
120  0
121  0
122  0
123  0
124  0
125  0
126  0
127  0
128  0
129  0
130  0
131  0
132  0
133  0
134  0
135  0
136  0
137  0
138  0
139  0
140  0
141  0
142  0
143  0
144  0
145  0
146  0
147  0
148  0
149  0
150  0
151  0
152  0
153  0
154  0
155  0
156  0
157  0
158  0
159  0
160  0
161  0
162  0
163  0
164  0
165  0
166  0
167  0
168  0
169  0
170  0
171  0
172  0
173  0
174  0
175  0
176  0
177  0
178  0
179  0
180  0
181  0
182  0
183  0
184  0
185  0
186  0
187  0
188  0
189  0
190  0
191  0
192  0
193  0
194  0
195  0
196  0
197  1
198  0
199  1
200  2
201  3
202  7
203  7
204  3
205  4
206  3
207  5
208  4
209  8
210  11
211  13
212  9
213  9
214  15
215  8
216  13
217  12
218  19
219  8
220  15
221  16
222  14
223  9
224  11
225  11
226  8
227  15
228  10
229  7
230  9
231  9
232  14
233  5
234  6
235  5
236  4
237  1
238  7
239  9
240  2
241  1
242  6
243  6
244  4
245  3
246  4
247  4
248  2
249  1
250  3
251  1
252  4
253  1
254  3
255  5
256  1
257  5
258  2
259  4
260  1
261  2
262  1
263  1
264  7
265  1
266  3
267  2
268  1
269  3
270  4
271  2
272  3
273  6
274  2
275  3
276  6
277  0
278  3
279  5
280  5
281  4
282  1
283  2
284  5
285  3
286  3
287  1
288  2
289  1
290  1
291  2
292  3
293  2
294  3
295  1
296  0
297  2
298  1
299  3
300  2
301  1
302  0
303  2
304  4
305  3
306  2
307  4
308  3
309  1
310  0
311  3
312  3
313  2
314  1
315  3
316  2
317  4
318  1
319  3
320  4
321  3
322  4
323  3
324  4
325  2
326  0
327  1
328  3
329  0
330  3
331  0
332  2
333  6
334  1
335  6
336  1
337  3
338  0
339  1
340  2
341  0
342  3
343  2
344  0
345  1
346  3
347  1
348  2
349  3
350  5
351  1
352  3
353  3
354  2
355  2
356  3
357  2
358  1
359  1
360  7
361  3
362  7
363  4
364  1
365  2
366  3
367  3
368  1
369  2
370  3
371  3
372  2
373  3
374  0
375  3
376  4
377  0
378  1
379  2
380  3
381  5
382  4
383  0
384  1
385  1
386  3
387  3
388  0
389  1
390  4
391  2
392  5
393  5
394  3
395  6
396  1
397  2
398  2
399  2
400  4
401  5
402  2
403  0
404  2
405  2
406  2
407  4
408  2
409  1
410  4
411  6
412  3
413  1
414  3
415  3
416  1
417  2
418  2
419  0
420  2
421  2
422  5
423  2
424  5
425  4
426  4
427  2
428  3
429  3
430  4
431  3
432  4
433  4
434  3
435  2
436  4
437  5
438  1
439  2
440  1
441  3
442  1
443  4
444  4
445  3
446  0
447  2
448  4
449  0
450  2
451  2
452  3
453  2
454  3
455  5
456  5
457  3
458  1
459  3
460  3
461  3
462  2
463  5
464  4
465  4
466  2
467  1
468  2
469  5
470  4
471  2
472  2
473  0
474  4
475  2
476  1
477  2
478  2
479  1
480  4
481  1
482  3
483  3
484  1
485  3
486  3
487  1
488  1
489  4
490  5
491  4
492  5
493  3
494  3
495  0
496  4
497  1
498  4
499  3
500  4
501  5
502  3
503  3
504  2
505  1
506  1
507  3
508  1
509  2
510  2
511  0
512  1
513  3
514  4
515  6
516  3
517  1
518  7
519  3
520  3
521  4
522  3
523  1
524  2
525  4
526  4
527  2
528  1
529  1
530  4
531  5
532  2
533  2
534  4
535  4
536  4
537  4
538  4
539  1
540  0
541  4
542  3
543  1
544  4
545  0
546  4
547  4
548  6
549  2
550  3
551  0
552  4
553  3
554  1
555  1
556  1
557  2
558  3
559  1
560  5
561  0
562  0
563  3
564  1
565  3
566  0
567  2
568  1
569  5
570  2
571  3
572  2
573  1
574  1
575  3
576  3
577  1
578  3
579  4
580  2
581  3
582  2
583  1
584  1
585  5
586  0
587  1
588  3
589  2
590  3
591  5
592  3
593  3
594  1
595  2
596  3
597  3
598  4
599  1
600  6
601  2
602  2
603  1
604  2
605  2
606  2
607  2
608  3
609  3
610  1
611  5
612  0
613  1
614  2
615  1
616  2
617  2
618  3
619  1
620  6
621  2
622  2
623  2
624  3
625  3
626  0
627  1
628  4
629  3
630  0
631  3
632  1
633  3
634  1
635  0
636  2
637  3
638  0
639  2
640  3
641  3
642  0
643  5
644  2
645  1
646  1
647  1
648  2
649  4
650  1
651  1
652  3
653  3
654  3
655  3
656  4
657  4
658  3
659  2
660  5
661  1
662  2
663  3
664  1
665  2
666  3
667  7
668  2
669  4
670  2
671  2
672  2
673  1
674  3
675  3
676  2
677  1
678  1
679  3
680  3
681  3
682  3
683  2
684  2
685  2
686  2
687  5
688  4
689  1
690  7
691  2
692  4
693  2
694  3
695  5
696  1
697  0
698  2
699  7
700  7
701  3
702  3
703  0
704  2
705  3
706  2
707  2
708  2
709  3
710  3
711  2
712  1
713  1
714  6
715  1
716  4
717  3
718  1
719  5
720  3
721  3
722  4
723  2
724  3
725  4
726  2
727  2
728  3
729  3
730  5
731  4
732  2
733  0
734  7
735  3
736  5
737  2
738  4
739  1
740  2
741  5
742  1
743  5
744  0
745  2
746  3
747  1
748  3
749  2
750  1
751  4
752  1
753  1
754  6
755  2
756  5
757  1
758  2
759  1
760  2
761  1
762  5
763  1
764  0
765  8
766  1
767  2
768  2
769  3
770  5
771  8
772  3
773  1
774  4
775  2
776  4
777  3
778  1
779  2
780  1
781  5
782  2
783  2
784  2
785  5
786  3
787  3
788  3
789  6
790  1
791  2
792  1
793  5
794  3
795  1
796  1
797  0
798  1
799  3
800  3
801  2
802  4
803  5
804  1
805  2
806  2
807  2
808  2
809  3
810  2
811  1
812  1
813  4
814  1
815  6
816  4
817  2
818  6
819  4
820  1
821  1
822  3
823  1
824  2
825  1
826  1
827  1
828  5
829  2
830  3
831  0
832  2
833  4
834  3
835  0
836  5
837  4
838  5
839  0
840  1
841  3
842  4
843  1
844  3
845  4
846  1
847  3
848  4
849  2
850  2
851  3
852  2
853  0
854  2
855  1
856  1
857  1
858  1
859  3
860  1
861  2
862  2
863  5
864  4
865  5
866  2
867  2
868  5
869  1
870  0
871  3
872  2
873  2
874  5
875  3
876  2
877  4
878  4
879  3
880  1
881  3
882  4
883  5
884  1
885  4
886  4
887  2
888  3
889  1
890  4
891  4
892  4
893  3
894  4
895  0
896  6
897  0
898  0
899  3
900  0
901  5
902  4
903  7
904  6
905  4
906  2
907  4
908  5
909  4
910  3
911  1
912  1
913  5
914  1
915  1
916  2
917  7
918  3
919  8
920  1
921  3
922  3
923  3
924  3
925  1
926  1
927  3
928  2
929  1
930  2
931  2
932  1
933  0
934  2
935  2
936  4
937  2
938  1
939  3
940  4
941  1
942  2
943  1
944  5
945  3
946  1
947  0
948  4
949  3
950  5
951  6
952  2
953  2
954  3
955  3
956  2
957  2
958  0
959  4
960  2
961  4
962  7
963  4
964  3
965  0
966  4
967  5
968  3
969  2
970  5
971  3
972  4
973  4
974  4
975  3
976  4
977  2
978  5
979  3
980  8
981  4
982  2
983  3
984  5
985  2
986  3
987  5
988  1
989  3
990  2
991  3
992  1
993  2
994  1
995  5
996  4
997  3
998  4
999  2
1000  2
1001  2
1002  3
1003  5
1004  4
1005  2
1006  3
1007  3
1008  4
1009  4
1010  4
1011  5
1012  4
1013  1
1014  4
1015  4
1016  1
1017  2
1018  3
1019  3
1020  6
1021  5
1022  4
1023  5
1024  2
1025  2
1026  4
1027  2
1028  2
1029  2
1030  3
1031  5
1032  3
1033  1
1034  2
1035  1
1036  1
1037  5
1038  3
1039  4
1040  1
1041  4
1042  4
1043  2
1044  1
1045  4
1046  1
1047  7
1048  5
1049  5
1050  4
1051  4
1052  4
1053  1
1054  2
1055  4
1056  1
1057  4
1058  2
1059  4
1060  4
1061  3
1062  1
1063  7
1064  2
1065  5
1066  4
1067  6
1068  7
1069  3
1070  6
1071  5
1072  8
1073  4
1074  2
1075  7
1076  6
1077  3
1078  2
1079  9
1080  4
1081  6
1082  2
1083  0
1084  6
1085  2
1086  3
1087  6
1088  1
1089  3
1090  4
1091  3
1092  2
1093  2
1094  2
1095  5
1096  5
1097  5
1098  6
1099  5
1100  6
1101  5
1102  4
1103  6
1104  2
1105  3
1106  3
1107  1
1108  3
1109  3
1110  6
1111  5
1112  4
1113  11
1114  2
1115  6
1116  9
1117  6
1118  4
1119  6
1120  4
1121  6
1122  3
1123  4
1124  3
1125  3
1126  7
1127  3
1128  3
1129  1
1130  9
1131  6
1132  8
1133  6
1134  6
1135  4
1136  6
1137  4
1138  3
1139  5
1140  5
1141  11
1142  5
1143  1
1144  2
1145  5
1146  5
1147  13
1148  3
1149  12
1150  4
1151  4
1152  7
1153  8
1154  3
1155  9
1156  6
1157  4
1158  3
1159  6
1160  7
1161  4
1162  9
1163  5
1164  8
1165  9
1166  4
1167  4
1168  6
1169  7
1170  4
1171  5
1172  6
1173  6
1174  5
1175  6
1176  5
1177  7
1178  9
1179  1
1180  8
1181  9
1182  4
1183  15
1184  7
1185  6
1186  4
1187  4
1188  5
1189  2
1190  7
1191  5
1192  12
1193  7
1194  6
1195  5
1196  10
1197  5
1198  9
1199  6
1200  6
1201  7
1202  8
1203  5
1204  3
1205  9
1206  5
1207  12
1208  10
1209  7
1210  3
1211  10
1212  9
1213  5
1214  14
1215  9
1216  8
1217  4
1218  6
1219  6
1220  8
1221  7
1222  15
1223  10
1224  4
1225  6
1226  8
1227  8
1228  6
1229  10
1230  6
1231  9
1232  11
1233  11
1234  3
1235  6
1236  7
1237  6
1238  7
1239  8
1240  6
1241  11
1242  11
1243  9
1244  11
1245  6
1246  7
1247  11
1248  10
1249  9
1250  9
1251  8
1252  6
1253  7
1254  8
1255  4
1256  10
1257  8
1258  7
1259  5
1260  9
1261  9
1262  8
1263  11
1264  7
1265  7
1266  5
1267  5
1268  9
1269  18
1270  12
1271  10
1272  10
1273  8
1274  10
1275  10
1276  7
1277  10
1278  11
1279  14
1280  15
1281  9
1282  8
1283  9
1284  9
1285  13
1286  19
1287  12
1288  11
1289  11
1290  12
1291  11
1292  14
1293  3
1294  5
1295  14
1296  8
1297  12
1298  9
1299  6
1300  10
1301  8
1302  9
1303  7
1304  13
1305  11
1306  10
1307  14
1308  20
1309  7
1310  16
1311  5
1312  14
1313  12
1314  13
1315  9
1316  12
1317  8
1318  13
1319  10
1320  10
1321  12
1322  9
1323  10
1324  12
1325  11
1326  9
1327  17
1328  15
1329  12
1330  11
1331  18
1332  9
1333  12
1334  8
1335  12
1336  19
1337  9
1338  9
1339  12
1340  15
1341  12
1342  12
1343  12
1344  18
1345  8
1346  11
1347  12
1348  12
1349  16
1350  7
1351  13
1352  14
1353  10
1354  14
1355  14
1356  11
1357  16
1358  16
1359  10
1360  8
1361  13
1362  10
1363  19
1364  8
1365  13
1366  15
1367  8
1368  13
1369  9
1370  16
1371  10
1372  11
1373  17
1374  14
1375  20
1376  10
1377  16
1378  15
1379  15
1380  14
1381  15
1382  11
1383  15
1384  11
1385  12
1386  14
1387  18
1388  24
1389  24
1390  19
1391  20
1392  15
1393  15
1394  14
1395  14
1396  16
1397  19
1398  16
1399  18
1400  13
1401  16
1402  15
1403  18
1404  24
1405  12
1406  13
1407  18
1408  18
1409  16
1410  12
1411  12
1412  19
1413  12
1414  26
1415  18
1416  18
1417  15
1418  14
1419  24
1420  20
1421  15
1422  18
1423  21
1424  23
1425  17
1426  17
1427  12
1428  23
1429  19
1430  17
1431  15
1432  21
1433  14
1434  19
1435  21
1436  19
1437  14
1438  16
1439  17
1440  14
1441  25
1442  17
1443  17
1444  19
1445  20
1446  20
1447  16
1448  19
1449  26
1450  22
1451  26
1452  13
1453  16
1454  16
1455  18
1456  19
1457  11
1458  22
1459  10
1460  14
1461  20
1462  23
1463  13
1464  24
1465  26
1466  10
1467  22
1468  18
1469  19
1470  12
1471  22
1472  17
1473  14
1474  20
1475  18
1476  22
1477  16
1478  24
1479  16
1480  18
1481  23
1482  15
1483  26
1484  18
1485  12
1486  22
1487  20
1488  25
1489  19
1490  18
1491  17
1492  23
1493  21
1494  23
1495  17
1496  16
1497  17
1498  13
1499  17
1500  24
1501  21
1502  20
1503  21
1504  17
1505  18
1506  29
1507  27
1508  21
1509  17
1510  18
1511  12
1512  21
1513  26
1514  24
1515  19
1516  26
1517  24
1518  19
1519  20
1520  21
1521  24
1522  26
1523  27
1524  19
1525  19
1526  14
1527  17
1528  21
1529  16
1530  29
1531  29
1532  23
1533  25
1534  22
1535  21
1536  23
1537  18
1538  27
1539  24
1540  24
1541  29
1542  25
1543  25
1544  27
1545  26
1546  21
1547  17
1548  30
1549  26
1550  23
1551  32
1552  19
1553  18
1554  23
1555  36
1556  28
1557  13
1558  27
1559  22
1560  20
1561  33
1562  14
1563  25
1564  20
1565  25
1566  26
1567  27
1568  16
1569  30
1570  31
1571  34
1572  27
1573  22
1574  16
1575  24
1576  30
1577  30
1578  22
1579  25
1580  31
1581  34
1582  18
1583  22
1584  22
1585  25
1586  22
1587  28
1588  20
1589  36
1590  30
1591  32
1592  26
1593  21
1594  26
1595  23
1596  26
1597  14
1598  31
1599  22
1600  29
1601  19
1602  16
1603  23
1604  30
1605  34
1606  17
1607  24
1608  29
1609  26
1610  20
1611  28
1612  24
1613  28
1614  34
1615  25
1616  21
1617  31
1618  21
1619  27
1620  27
1621  29
1622  36
1623  27
1624  29
1625  19
1626  19
1627  26
1628  35
1629  23
1630  26
1631  18
1632  34
1633  29
1634  31
1635  31
1636  26
1637  22
1638  36
1639  22
1640  30
1641  30
1642  24
1643  33
1644  27
1645  35
1646  35
1647  26
1648  29
1649  28
1650  24
1651  36
1652  39
1653  28
1654  25
1655  35
1656  31
1657  33
1658  35
1659  20
1660  33
1661  42
1662  28
1663  35
1664  24
1665  33
1666  32
1667  28
1668  31
1669  20
1670  43
1671  40
1672  39
1673  41
1674  39
1675  21
1676  21
1677  40
1678  26
1679  34
1680  25
1681  28
1682  21
1683  36
1684  37
1685  32
1686  27
1687  34
1688  31
1689  25
1690  25
1691  46
1692  36
1693  27
1694  27
1695  38
1696  35
1697  31
1698  37
1699  33
1700  29
1701  25
1702  36
1703  31
1704  32
1705  27
1706  37
1707  30
1708  31
1709  18
1710  20
1711  29
1712  36
1713  39
1714  37
1715  27
1716  32
1717  32
1718  28
1719  30
1720  40
1721  26
1722  39
1723  23
1724  33
1725  40
1726  39
1727  39
1728  48
1729  31
1730  35
1731  37
1732  28
1733  31
1734  31
1735  43
1736  36
1737  31
1738  28
1739  39
1740  38
1741  38
1742  34
1743  38
1744  35
1745  39
1746  26
1747  37
1748  32
1749  37
1750  30
1751  35
1752  39
1753  42
1754  37
1755  28
1756  42
1757  34
1758  25
1759  50
1760  40
1761  36
1762  42
1763  30
1764  45
1765  43
1766  32
1767  42
1768  34
1769  21
1770  40
1771  49
1772  31
1773  45
1774  47
1775  37
1776  33
1777  34
1778  40
1779  37
1780  42
1781  32
1782  45
1783  33
1784  31
1785  33
1786  44
1787  40
1788  41
1789  37
1790  28
1791  45
1792  44
1793  37
1794  42
1795  44
1796  30
1797  41
1798  28
1799  42
1800  34
1801  31
1802  30
1803  46
1804  52
1805  31
1806  54
1807  29
1808  42
1809  33
1810  46
1811  47
1812  47
1813  33
1814  40
1815  46
1816  32
1817  34
1818  36
1819  42
1820  50
1821  43
1822  42
1823  40
1824  45
1825  42
1826  50
1827  44
1828  54
1829  33
1830  40
1831  38
1832  31
1833  43
1834  50
1835  35
1836  41
1837  41
1838  37
1839  39
1840  36
1841  38
1842  34
1843  40
1844  44
1845  33
1846  35
1847  35
1848  41
1849  68
1850  60
1851  45
1852  28
1853  36
1854  36
1855  40
1856  48
1857  49
1858  47
1859  57
1860  38
1861  49
1862  35
1863  48
1864  47
1865  45
1866  30
1867  37
1868  54
1869  54
1870  59
1871  39
1872  50
1873  49
1874  39
1875  33
1876  43
1877  36
1878  48
1879  41
1880  45
1881  55
1882  48
1883  40
1884  40
1885  41
1886  47
1887  32
1888  45
1889  47
1890  45
1891  38
1892  41
1893  40
1894  50
1895  42
1896  46
1897  42
1898  46
1899  47
1900  44
1901  40
1902  59
1903  47
1904  43
1905  30
1906  43
1907  49
1908  48
1909  45
1910  47
1911  43
1912  42
1913  55
1914  45
1915  49
1916  44
1917  41
1918  50
1919  32
1920  50
1921  46
1922  41
1923  49
1924  35
1925  45
1926  38
1927  40
1928  50
1929  58
1930  52
1931  47
1932  45
1933  40
1934  41
1935  47
1936  39
1937  42
1938  40
1939  55
1940  47
1941  65
1942  43
1943  48
1944  69
1945  41
1946  49
1947  41
1948  52
1949  46
1950  60
1951  49
1952  67
1953  49
1954  53
1955  40
1956  49
1957  67
1958  41
1959  57
1960  50
1961  46
1962  38
1963  38
1964  40
1965  52
1966  43
1967  49
1968  51
1969  45
1970  42
1971  61
1972  43
1973  46
1974  41
1975  40
1976  51
1977  54
1978  54
1979  40
1980  61
1981  60
1982  53
1983  49
1984  43
1985  45
1986  36
1987  48
1988  54
1989  55
1990  44
1991  52
1992  59
1993  56
1994  57
1995  46
1996  47
1997  71
1998  57
1999  61
2000  46
2001  58
2002  58
2003  54
2004  55
2005  51
2006  55
2007  47
2008  51
2009  57
2010  55
2011  54
2012  51
2013  51
2014  61
2015  55
2016  41
2017  51
2018  59
2019  54
2020  49
2021  60
2022  48
2023  54
2024  64
2025  46
2026  51
2027  50
2028  52
2029  48
2030  61
2031  48
2032  46
2033  52
2034  54
2035  53
2036  50
2037  51
2038  49
2039  57
2040  44
2041  57
2042  45
2043  61
2044  64
2045  43
2046  43
2047  55
2048  78
2049  61
2050  57
2051  71
2052  51
2053  54
2054  51
2055  62
2056  54
2057  60
2058  50
2059  50
2060  57
2061  47
2062  54
2063  45
2064  57
2065  62
2066  52
2067  41
2068  44
2069  48
2070  65
2071  76
2072  45
2073  33
2074  63
2075  41
2076  49
2077  55
2078  54
2079  61
2080  46
2081  46
2082  59
2083  53
2084  52
2085  48
2086  54
2087  45
2088  48
2089  65
2090  44
2091  56
2092  53
2093  57
2094  50
2095  71
2096  57
2097  52
2098  51
2099  61
2100  54
2101  45
2102  60
2103  59
2104  55
2105  48
2106  61
2107  60
2108  53
2109  54
2110  57
2111  59
2112  53
2113  47
2114  70
2115  56
2116  57
2117  46
2118  66
2119  51
2120  56
2121  44
2122  60
2123  54
2124  69
2125  55
2126  53
2127  62
2128  61
2129  40
2130  55
2131  54
2132  54
2133  58
2134  56
2135  64
2136  51
2137  61
2138  54
2139  51
2140  50
2141  48
2142  48
2143  55
2144  48
2145  52
2146  53
2147  67
2148  47
2149  57
2150  41
2151  53
2152  56
2153  59
2154  70
2155  59
2156  58
2157  75
2158  44
2159  68
2160  52
2161  58
2162  51
2163  60
2164  58
2165  44
2166  60
2167  58
2168  55
2169  62
2170  65
2171  64
2172  67
2173  59
2174  57
2175  66
2176  53
2177  65
2178  69
2179  60
2180  49
2181  66
2182  43
2183  57
2184  54
2185  50
2186  47
2187  52
2188  64
2189  57
2190  59
2191  65
2192  56
2193  52
2194  61
2195  53
2196  68
2197  65
2198  58
2199  54
2200  56
2201  69
2202  64
2203  55
2204  55
2205  71
2206  68
2207  54
2208  57
2209  68
2210  55
2211  55
2212  69
2213  54
2214  69
2215  62
2216  68
2217  49
2218  68
2219  61
2220  57
2221  58
2222  48
2223  71
2224  51
2225  72
2226  57
2227  73
2228  64
2229  66
2230  59
2231  69
2232  58
2233  62
2234  78
2235  63
2236  59
2237  58
2238  69
2239  60
2240  67
2241  66
2242  52
2243  54
2244  66
2245  66
2246  53
2247  65
2248  81
2249  53
2250  56
2251  67
2252  45
2253  54
2254  63
2255  66
2256  69
2257  49
2258  53
2259  71
2260  70
2261  62
2262  66
2263  58
2264  67
2265  57
2266  73
2267  69
2268  58
2269  70
2270  61
2271  68
2272  66
2273  65
2274  40
2275  55
2276  59
2277  56
2278  66
2279  59
2280  56
2281  52
2282  64
2283  55
2284  72
2285  61
2286  57
2287  72
2288  73
2289  73
2290  63
2291  85
2292  60
2293  57
2294  75
2295  53
2296  53
2297  68
2298  52
2299  81
2300  74
2301  63
2302  61
2303  56
2304  54
2305  52
2306  50
2307  61
2308  61
2309  59
2310  49
2311  74
2312  64
2313  60
2314  73
2315  77
2316  80
2317  67
2318  66
2319  66
2320  69
2321  63
2322  68
2323  63
2324  65
2325  65
2326  47
2327  74
2328  56
2329  65
2330  54
2331  66
2332  53
2333  47
2334  57
2335  59
2336  73
2337  51
2338  59
2339  55
2340  69
2341  59
2342  65
2343  58
2344  53
2345  52
2346  54
2347  53
2348  59
2349  66
2350  70
2351  73
2352  63
2353  61
2354  78
2355  72
2356  62
2357  76
2358  67
2359  70
2360  64
2361  72
2362  64
2363  78
2364  59
2365  53
2366  60
2367  57
2368  61
2369  65
2370  52
2371  69
2372  71
2373  77
2374  56
2375  59
2376  81
2377  69
2378  71
2379  59
2380  63
2381  72
2382  66
2383  58
2384  45
2385  77
2386  58
2387  73
2388  66
2389  85
2390  80
2391  64
2392  54
2393  61
2394  73
2395  48
2396  72
2397  57
2398  67
2399  60
2400  61
2401  58
2402  65
2403  59
2404  62
2405  68
2406  65
2407  58
2408  51
2409  72
2410  67
2411  51
2412  63
2413  68
2414  59
2415  61
2416  63
2417  64
2418  79
2419  52
2420  66
2421  60
2422  83
2423  74
2424  66
2425  87
2426  63
2427  72
2428  58
2429  60
2430  60
2431  66
2432  66
2433  64
2434  62
2435  69
2436  68
2437  74
2438  68
2439  73
2440  71
2441  68
2442  60
2443  72
2444  60
2445  60
2446  53
2447  64
2448  71
2449  57
2450  62
2451  72
2452  63
2453  53
2454  76
2455  56
2456  67
2457  59
2458  55
2459  65
2460  67
2461  78
2462  71
2463  60
2464  64
2465  63
2466  54
2467  74
2468  64
2469  57
2470  64
2471  72
2472  52
2473  56
2474  61
2475  61
2476  67
2477  66
2478  62
2479  57
2480  71
2481  72
2482  54
2483  63
2484  60
2485  69
2486  64
2487  58
2488  77
2489  58
2490  59
2491  65
2492  47
2493  74
2494  60
2495  62
2496  64
2497  53
2498  67
2499  51
2500  58
2501  58
2502  51
2503  44
2504  58
2505  63
2506  47
2507  52
2508  59
2509  56
2510  67
2511  74
2512  67
2513  67
2514  63
2515  55
2516  51
2517  57
2518  62
2519  53
2520  57
2521  52
2522  54
2523  41
2524  60
2525  65
2526  58
2527  67
2528  63
2529  60
2530  66
2531  60
2532  52
2533  63
2534  69
2535  47
2536  73
2537  51
2538  64
2539  45
2540  50
2541  49
2542  64
2543  59
2544  61
2545  51
2546  70
2547  59
2548  59
2549  48
2550  52
2551  58
2552  60
2553  55
2554  67
2555  52
2556  73
2557  52
2558  55
2559  54
2560  61
2561  49
2562  62
2563  56
2564  73
2565  67
2566  69
2567  65
2568  52
2569  55
2570  69
2571  61
2572  54
2573  57
2574  39
2575  55
2576  51
2577  59
2578  61
2579  48
2580  53
2581  54
2582  66
2583  60
2584  58
2585  52
2586  55
2587  67
2588  56
2589  54
2590  44
2591  52
2592  55
2593  42
2594  57
2595  48
2596  50
2597  68
2598  52
2599  48
2600  58
2601  55
2602  42
2603  39
2604  50
2605  47
2606  43
2607  55
2608  53
2609  46
2610  46
2611  62
2612  60
2613  53
2614  54
2615  59
2616  64
2617  40
2618  56
2619  59
2620  40
2621  64
2622  58
2623  47
2624  55
2625  57
2626  52
2627  58
2628  50
2629  46
2630  37
2631  39
2632  50
2633  51
2634  45
2635  41
2636  44
2637  53
2638  46
2639  42
2640  52
2641  64
2642  49
2643  49
2644  47
2645  54
2646  51
2647  42
2648  47
2649  43
2650  41
2651  51
2652  43
2653  55
2654  52
2655  50
2656  42
2657  43
2658  50
2659  43
2660  60
2661  40
2662  52
2663  51
2664  49
2665  39
2666  42
2667  34
2668  48
2669  39
2670  34
2671  45
2672  44
2673  49
2674  41
2675  44
2676  40
2677  34
2678  51
2679  40
2680  51
2681  45
2682  39
2683  47
2684  51
2685  38
2686  45
2687  56
2688  41
2689  44
2690  35
2691  43
2692  34
2693  46
2694  42
2695  47
2696  32
2697  31
2698  40
2699  44
2700  28
2701  35
2702  51
2703  38
2704  30
2705  50
2706  41
2707  53
2708  44
2709  43
2710  53
2711  35
2712  40
2713  50
2714  49
2715  44
2716  49
2717  44
2718  45
2719  47
2720  37
2721  52
2722  52
2723  35
2724  39
2725  37
2726  47
2727  42
2728  43
2729  43
2730  41
2731  39
2732  29
2733  40
2734  37
2735  40
2736  33
2737  45
2738  34
2739  40
2740  37
2741  51
2742  42
2743  34
2744  42
2745  39
2746  28
2747  50
2748  48
2749  35
2750  50
2751  35
2752  31
2753  38
2754  36
2755  33
2756  36
2757  31
2758  38
2759  40
2760  39
2761  37
2762  41
2763  25
2764  26
2765  34
2766  43
2767  44
2768  27
2769  32
2770  23
2771  36
2772  39
2773  27
2774  29
2775  34
2776  32
2777  26
2778  35
2779  26
2780  32
2781  27
2782  32
2783  33
2784  32
2785  33
2786  33
2787  29
2788  33
2789  40
2790  35
2791  33
2792  23
2793  34
2794  35
2795  32
2796  31
2797  23
2798  41
2799  29
2800  27
2801  34
2802  36
2803  23
2804  31
2805  23
2806  33
2807  25
2808  30
2809  30
2810  29
2811  31
2812  29
2813  27
2814  26
2815  20
2816  23
2817  25
2818  31
2819  22
2820  27
2821  25
2822  29
2823  10
2824  37
2825  23
2826  28
2827  21
2828  26
2829  16
2830  24
2831  23
2832  24
2833  26
2834  27
2835  21
2836  20
2837  26
2838  28
2839  31
2840  23
2841  16
2842  22
2843  22
2844  22
2845  7
2846  27
2847  30
2848  13
2849  15
2850  21
2851  20
2852  16
2853  13
2854  24
2855  17
2856  13
2857  17
2858  21
2859  22
2860  21
2861  10
2862  12
2863  13
2864  15
2865  21
2866  21
2867  16
2868  12
2869  15
2870  13
2871  17
2872  12
2873  22
2874  18
2875  10
2876  13
2877  23
2878  14
2879  15
2880  9
2881  23
2882  15
2883  17
2884  12
2885  17
2886  9
2887  12
2888  16
2889  20
2890  17
2891  16
2892  14
2893  19
2894  14
2895  18
2896  10
2897  9
2898  14
2899  11
2900  14
2901  13
2902  8
2903  11
2904  20
2905  17
2906  16
2907  12
2908  10
2909  7
2910  11
2911  9
2912  12
2913  13
2914  17
2915  9
2916  17
2917  15
2918  9
2919  21
2920  10
2921  9
2922  12
2923  8
2924  11
2925  9
2926  9
2927  7
2928  10
2929  9
2930  5
2931  8
2932  5
2933  9
2934  16
2935  16
2936  14
2937  10
2938  5
2939  13
2940  6
2941  12
2942  17
2943  15
2944  12
2945  8
2946  12
2947  12
2948  17
2949  9
2950  11
2951  12
2952  13
2953  9
2954  14
2955  13
2956  11
2957  10
2958  9
2959  13
2960  9
2961  14
2962  20
2963  16
2964  19
2965  7
2966  16
2967  17
2968  13
2969  6
2970  6
2971  11
2972  8
2973  13
2974  5
2975  6
2976  13
2977  12
2978  10
2979  9
2980  10
2981  6
2982  8
2983  13
2984  9
2985  11
2986  8
2987  9
2988  20
2989  7
2990  8
2991  12
2992  10
2993  13
2994  8
2995  11
2996  12
2997  9
2998  13
2999  9
3000  11
3001  10
3002  14
3003  7
3004  7
3005  6
3006  17
3007  12
3008  12
3009  9
3010  8
3011  14
3012  13
3013  11
3014  14
3015  8
3016  8
3017  11
3018  9
3019  14
3020  11
3021  6
3022  5
3023  7
3024  7
3025  9
3026  5
3027  11
3028  6
3029  8
3030  5
3031  11
3032  7
3033  5
3034  6
3035  9
3036  9
3037  9
3038  11
3039  9
3040  8
3041  9
3042  5
3043  6
3044  10
3045  9
3046  3
3047  6
3048  7
3049  9
3050  7
3051  6
3052  7
3053  10
3054  4
3055  5
3056  5
3057  8
3058  9
3059  5
3060  7
3061  8
3062  8
3063  3
3064  7
3065  4
3066  4
3067  5
3068  5
3069  3
3070  6
3071  3
3072  5
3073  1
3074  5
3075  4
3076  2
3077  8
3078  4
3079  2
3080  0
3081  2
3082  2
3083  0
3084  2
3085  1
3086  1
3087  3
3088  7
3089  0
3090  2
3091  3
3092  0
3093  2
3094  1
3095  0
3096  7
3097  1
3098  3
3099  4
3100  3
3101  3
3102  5
3103  2
3104  0
3105  0
3106  4
3107  1
3108  2
3109  3
3110  2
3111  2
3112  3
3113  3
3114  2
3115  0
3116  1
3117  2
3118  4
3119  0
3120  1
3121  0
3122  1
3123  2
3124  3
3125  1
3126  1
3127  1
3128  4
3129  3
3130  3
3131  1
3132  1
3133  2
3134  2
3135  3
3136  1
3137  2
3138  0
3139  1
3140  3
3141  4
3142  0
3143  2
3144  4
3145  4
3146  0
3147  3
3148  1
3149  0
3150  2
3151  1
3152  3
3153  3
3154  8
3155  2
3156  0
3157  1
3158  1
3159  3
3160  2
3161  6
3162  2
3163  2
3164  1
3165  1
3166  3
3167  0
3168  1
3169  1
3170  6
3171  3
3172  2
3173  4
3174  3
3175  3
3176  1
3177  3
3178  1
3179  3
3180  2
3181  3
3182  2
3183  2
3184  3
3185  0
3186  3
3187  0
3188  4
3189  2
3190  5
3191  2
3192  4
3193  1
3194  1
3195  2
3196  1
3197  1
3198  1
3199  4
3200  1
3201  4
3202  3
3203  4
3204  3
3205  3
3206  2
3207  2
3208  1
3209  6
3210  0
3211  2
3212  3
3213  5
3214  4
3215  0
3216  6
3217  5
3218  1
3219  4
3220  4
3221  5
3222  2
3223  2
3224  5
3225  3
3226  5
3227  5
3228  2
3229  1
3230  1
3231  2
3232  5
3233  1
3234  4
3235  1
3236  3
3237  3
3238  9
3239  4
3240  2
3241  5
3242  1
3243  3
3244  1
3245  2
3246  4
3247  2
3248  3
3249  2
3250  5
3251  2
3252  2
3253  5
3254  3
3255  1
3256  7
3257  5
3258  1
3259  1
3260  1
3261  2
3262  3
3263  0
3264  3
3265  4
3266  5
3267  3
3268  3
3269  2
3270  1
3271  1
3272  1
3273  3
3274  2
3275  3
3276  2
3277  2
3278  4
3279  2
3280  4
3281  0
3282  1
3283  1
3284  2
3285  2
3286  1
3287  1
3288  1
3289  1
3290  3
3291  6
3292  3
3293  1
3294  1
3295  2
3296  3
3297  1
3298  3
3299  3
3300  2
3301  3
3302  0
3303  2
3304  3
3305  3
3306  5
3307  0
3308  2
3309  1
3310  1
3311  3
3312  0
3313  2
3314  2
3315  3
3316  4
3317  1
3318  3
3319  1
3320  2
3321  8
3322  2
3323  1
3324  2
3325  3
3326  1
3327  2
3328  3
3329  3
3330  0
3331  4
3332  4
3333  3
3334  4
3335  3
3336  2
3337  1
3338  1
3339  2
3340  4
3341  1
3342  2
3343  6
3344  0
3345  2
3346  2
3347  3
3348  2
3349  1
3350  2
3351  1
3352  1
3353  5
3354  1
3355  3
3356  3
3357  1
3358  5
3359  3
3360  0
3361  1
3362  5
3363  0
3364  2
3365  1
3366  4
3367  5
3368  3
3369  6
3370  2
3371  2
3372  1
3373  3
3374  2
3375  2
3376  1
3377  3
3378  1
3379  2
3380  2
3381  3
3382  1
3383  2
3384  2
3385  2
3386  0
3387  4
3388  7
3389  2
3390  3
3391  2
3392  1
3393  3
3394  5
3395  4
3396  0
3397  2
3398  2
3399  1
3400  3
3401  2
3402  4
3403  1
3404  3
3405  2
3406  2
3407  2
3408  1
3409  0
3410  2
3411  2
3412  4
3413  4
3414  4
3415  3
3416  3
3417  2
3418  2
3419  4
3420  5
3421  1
3422  5
3423  3
3424  2
3425  5
3426  3
3427  6
3428  1
3429  3
3430  2
3431  2
3432  1
3433  3
3434  2
3435  5
3436  3
3437  2
3438  2
3439  1
3440  2
3441  2
3442  4
3443  5
3444  7
3445  3
3446  0
3447  3
3448  2
3449  3
3450  2
3451  5
3452  4
3453  3
3454  5
3455  5
3456  1
3457  1
3458  2
3459  2
3460  1
3461  4
3462  4
3463  1
3464  3
3465  3
3466  0
3467  3
3468  1
3469  8
3470  1
3471  5
3472  2
3473  4
3474  5
3475  2
3476  4
3477  3
3478  5
3479  2
3480  1
3481  1
3482  3
3483  2
3484  3
3485  2
3486  3
3487  1
3488  6
3489  10
3490  4
3491  5
3492  5
3493  13
3494  5
3495  3
3496  3
3497  3
3498  4
3499  4
3500  1
3501  3
3502  3
3503  4
3504  8
3505  5
3506  1
3507  5
3508  8
3509  8
3510  5
3511  4
3512  10
3513  4
3514  7
3515  5
3516  9
3517  10
3518  5
3519  7
3520  13
3521  9
3522  8
3523  9
3524  15
3525  11
3526  7
3527  10
3528  17
3529  13
3530  13
3531  18
3532  8
3533  16
3534  15
3535  21
3536  23
3537  17
3538  20
3539  20
3540  15
3541  21
3542  24
3543  37
3544  38
3545  45
3546  51
3547  58
3548  72
3549  85
3550  100
3551  131
3552  158
3553  184
3554  243
3555  281
3556  315
3557  333
3558  404
3559  482
3560  480
3561  593
3562  642
3563  720
3564  780
3565  786
3566  829
3567  904
3568  937
3569  924
3570  976
3571  982
3572  963
3573  998
3574  960
3575  881
3576  900
3577  839
3578  849
3579  792
3580  692
3581  745
3582  623
3583  590
3584  476
3585  462
3586  430
3587  414
3588  374
3589  322
3590  278
3591  280
3592  266
3593  247
3594  186
3595  184
3596  179
3597  149
3598  145
3599  139
3600  111
3601  114
3602  130
3603  92
3604  96
3605  76
3606  80
3607  83
3608  72
3609  76
3610  75
3611  57
3612  62
3613  41
3614  51
3615  46
3616  49
3617  40
3618  28
3619  35
3620  29
3621  24
3622  24
3623  12
3624  15
3625  15
3626  14
3627  22
3628  13
3629  13
3630  14
3631  7
3632  14
3633  10
3634  12
3635  7
3636  11
3637  6
3638  2
3639  11
3640  2
3641  3
3642  2
3643  3
3644  4
3645  5
3646  2
3647  4
3648  4
3649  4
3650  3
3651  6
3652  2
3653  4
3654  1
3655  3
3656  3
3657  1
3658  4
3659  1
3660  1
3661  6
3662  1
3663  0
3664  2
3665  1
3666  0
3667  2
3668  4
3669  3
3670  3
3671  3
3672  1
3673  1
3674  1
3675  1
3676  2
3677  1
3678  3
3679  2
3680  2
3681  1
3682  2
3683  2
3684  0
3685  0
3686  1
3687  3
3688  1
3689  1
3690  5
3691  1
3692  1
3693  4
3694  2
3695  3
3696  2
3697  4
3698  1
3699  4
3700  3
3701  1
3702  3
3703  1
3704  3
3705  4
3706  6
3707  3
3708  3
3709  1
3710  3
3711  0
3712  1
3713  2
3714  4
3715  3
3716  1
3717  3
3718  4
3719  4
3720  7
3721  1
3722  1
3723  1
3724  4
3725  4
3726  1
3727  2
3728  2
3729  4
3730  3
3731  4
3732  2
3733  4
3734  1
3735  5
3736  5
3737  4
3738  1
3739  2
3740  3
3741  3
3742  5
3743  1
3744  0
3745  5
3746  3
3747  1
3748  2
3749  2
3750  1
3751  0
3752  5
3753  2
3754  1
3755  1
3756  1
3757  3
3758  2
3759  1
3760  3
3761  4
3762  2
3763  1
3764  1
3765  2
3766  5
3767  0
3768  3
3769  2
3770  3
3771  1
3772  0
3773  0
3774  3
3775  0
3776  2
3777  5
3778  3
3779  2
3780  3
3781  4
3782  1
3783  4
3784  6
3785  2
3786  3
3787  1
3788  1
3789  0
3790  0
3791  4
3792  3
3793  1
3794  1
3795  3
3796  2
3797  1
3798  1
3799  4
3800  2
3801  1
3802  4
3803  1
3804  4
3805  0
3806  5
3807  1
3808  4
3809  3
3810  1
3811  1
3812  1
3813  2
3814  5
3815  3
3816  5
3817  4
3818  4
3819  2
3820  1
3821  5
3822  3
3823  2
3824  3
3825  2
3826  3
3827  2
3828  4
3829  1
3830  2
3831  0
3832  1
3833  2
3834  2
3835  6
3836  4
3837  3
3838  2
3839  3
3840  0
3841  0
3842  0
3843  0
3844  0
3845  0
3846  0
3847  0
3848  0
3849  0
3850  0
3851  0
3852  0
3853  0
3854  0
3855  0
3856  0
3857  0
3858  0
3859  0
3860  0
3861  0
3862  0
3863  0
3864  0
3865  0
3866  0
3867  0
3868  0
3869  0
3870  0
3871  0
3872  0
3873  0
3874  0
3875  0
3876  0
3877  0
3878  0
3879  0
3880  0
3881  0
3882  0
3883  0
3884  0
3885  0
3886  0
3887  0
3888  0
3889  0
3890  0
3891  0
3892  0
3893  0
3894  0
3895  0
3896  0
3897  0
3898  0
3899  0
3900  0
3901  0
3902  0
3903  0
3904  0
3905  0
3906  0
3907  0
3908  0
3909  0
3910  0
3911  0
3912  0
3913  0
3914  0
3915  0
3916  0
3917  0
3918  0
3919  0
3920  0
3921  0
3922  0
3923  0
3924  0
3925  0
3926  0
3927  0
3928  0
3929  0
3930  0
3931  0
3932  0
3933  0
3934  0
3935  0
3936  0
3937  0
3938  0
3939  0
3940  0
3941  0
3942  0
3943  0
3944  0
3945  0
3946  0
3947  0
3948  0
3949  0
3950  0
3951  0
3952  0
3953  0
3954  0
3955  0
3956  0
3957  0
3958  0
3959  0
3960  0
3961  0
3962  0
3963  0
3964  0
3965  0
3966  0
3967  0
3968  0
3969  0
3970  0
3971  0
3972  0
3973  0
3974  0
3975  0
3976  0
3977  0
3978  0
3979  0
3980  0
3981  0
3982  0
3983  0
3984  0
3985  0
3986  0
3987  0
3988  0
3989  0
3990  0
3991  0
3992  0
3993  0
3994  0
3995  0
3996  0
3997  0
3998  0
3999  0
4000  0
4001  0
4002  0
4003  0
4004  0
4005  0
4006  0
4007  0
4008  0
4009  0
4010  0
4011  0
4012  0
4013  0
4014  0
4015  0
4016  0
4017  0
4018  0
4019  0
4020  0
4021  0
4022  0
4023  0
4024  0
4025  0
4026  0
4027  0
4028  0
4029  0
4030  0
4031  0
4032  0
4033  0
4034  0
4035  0
4036  0
4037  0
4038  0
4039  0
4040  0
4041  0
4042  0
4043  0
4044  0
4045  0
4046  0
4047  0
4048  0
4049  0
4050  0
4051  0
4052  0
4053  0
4054  0
4055  0
4056  0
4057  0
4058  0
4059  0
4060  0
4061  0
4062  0
4063  0
4064  0
4065  0
4066  0
4067  0
4068  0
4069  0
4070  0
4071  0
4072  0
4073  0
4074  0
4075  0
4076  0
4077  0
4078  0
4079  0
4080  0
4081  0
4082  0
4083  0
4084  0
4085  0
4086  0
4087  0
4088  0
4089  0
4090  0
4091  0
4092  0
4093  0
4094  0
4095  0
