0  0
1  0
2  0
3  0
4  0
5  0
6  0
7  0
8  0
9  0
10  0
11  0
12  0
13  0
14  14
15  356
16  1210
17  1312
18  441
19  77
20  46
21  19
22  11
23  7
24  7
25  9
26  9
27  10
28  11
29  12
30  10
31  16
32  10
33  11
34  7
35  9
36  10
37  4
38  4
39  6
40  3
41  10
42  7
43  4
44  8
45  3
46  2
47  0
48  0
49  0
50  0
51  0
52  0
53  0
54  0
55  0
56  0
57  0
58  0
59  0
60  0
61  0
62  0
63  0
64  0
65  0
66  0
67  0
68  0
69  0
70  0
71  0
72  0
73  0
74  0
75  0
76  0
77  0
78  0
79  0
80  0
81  0
82  0
83  0
84  0
85  0
86  0
87  0
88  0
89  0
90  0
91  0
92  0
93  0
94  0
95  0
96  0
97  0
98  0
99  0
100  0
101  0
102  0
103  0
104  0
105  0
106  0
107  0
108  0
109  0
110  0
111  0
112  0
113  0
114  0
115  0
116  0
117  0
118  0
119  0
120  0
121  0
122  0
123  0
124  0
125  0
126  0
127  0
128  0
129  0
130  0
131  0
132  0
133  0
134  0
135  0
136  0
137  0
138  0
139  0
140  0
141  0
142  0
143  0
144  0
145  0
146  0
147  0
148  0
149  0
150  0
151  0
152  0
153  0
154  0
155  0
156  0
157  0
158  0
159  0
160  0
161  0
162  0
163  0
164  0
165  0
166  0
167  0
168  0
169  0
170  0
171  0
172  0
173  0
174  0
175  0
176  0
177  0
178  0
179  0
180  0
181  15
182  240
183  725
184  1129
185  1395
186  1373
187  1035
188  518
189  258
190  213
191  129
192  148
193  103
194  106
195  88
196  101
197  83
198  72
199  73
200  55
201  61
202  71
203  73
204  81
205  57
206  69
207  67
208  75
209  78
210  75
211  48
212  50
213  69
214  60
215  78
216  61
217  46
218  67
219  71
220  73
221  63
222  69
223  61
224  56
225  63
226  63
227  58
228  46
229  53
230  59
231  59
232  52
233  55
234  66
235  53
236  56
237  65
238  73
239  72
240  62
241  68
242  57
243  55
244  60
245  73
246  61
247  78
248  72
249  71
250  89
251  49
252  66
253  52
254  58
255  62
256  62
257  58
258  71
259  61
260  58
261  62
262  51
263  47
264  57
265  65
266  48
267  76
268  52
269  67
270  53
271  62
272  69
273  59
274  56
275  62
276  57
277  70
278  71
279  65
280  57
281  60
282  61
283  77
284  59
285  62
286  54
287  49
288  53
289  55
290  59
291  82
292  61
293  51
294  53
295  70
296  68
297  65
298  57
299  78
300  63
301  70
302  88
303  67
304  57
305  65
306  58
307  57
308  53
309  57
310  69
311  59
312  62
313  74
314  61
315  65
316  59
317  62
318  56
319  53
320  55
321  63
322  57
323  59
324  63
325  56
326  58
327  55
328  56
329  51
330  66
331  57
332  72
333  61
334  56
335  73
336  67
337  67
338  63
339  74
340  64
341  65
342  56
343  65
344  56
345  55
346  60
347  56
348  61
349  68
350  68
351  64
352  65
353  64
354  49
355  70
356  38
357  50
358  59
359  67
360  61
361  67
362  54
363  61
364  48
365  66
366  69
367  49
368  53
369  53
370  64
371  70
372  81
373  75
374  63
375  56
376  60
377  50
378  63
379  67
380  60
381  64
382  72
383  60
384  49
385  62
386  75
387  63
388  58
389  59
390  64
391  54
392  68
393  65
394  59
395  71
396  63
397  49
398  52
399  56
400  61
401  60
402  71
403  68
404  67
405  62
406  52
407  55
408  60
409  71
410  56
411  62
412  58
413  55
414  81
415  65
416  63
417  46
418  48
419  64
420  53
421  61
422  78
423  54
424  63
425  62
426  56
427  62
428  64
429  60
430  66
431  68
432  59
433  74
434  64
435  60
436  61
437  66
438  52
439  71
440  52
441  55
442  59
443  53
444  78
445  61
446  52
447  58
448  55
449  78
450  48
451  59
452  64
453  77
454  66
455  58
456  61
457  62
458  64
459  62
460  69
461  53
462  54
463  71
464  61
465  63
466  75
467  66
468  61
469  51
470  55
471  78
472  66
473  76
474  62
475  68
476  67
477  60
478  68
479  55
480  52
481  50
482  54
483  77
484  44
485  59
486  47
487  61
488  57
489  56
490  68
491  72
492  78
493  59
494  55
495  57
496  63
497  62
498  57
499  69
500  76
501  73
502  56
503  54
504  72
505  49
506  64
507  53
508  73
509  52
510  66
511  68
512  56
513  51
514  57
515  59
516  54
517  62
518  67
519  49
520  60
521  72
522  63
523  59
524  48
525  56
526  55
527  68
528  68
529  51
530  65
531  78
532  61
533  69
534  74
535  75
536  61
537  61
538  71
539  63
540  72
541  66
542  74
543  68
544  66
545  63
546  66
547  54
548  55
549  54
550  66
551  63
552  61
553  56
554  71
555  58
556  54
557  56
558  56
559  53
560  74
561  55
562  46
563  49
564  71
565  57
566  64
567  57
568  72
569  65
570  64
571  55
572  67
573  59
574  61
575  68
576  50
577  58
578  55
579  56
580  61
581  78
582  51
583  42
584  51
585  65
586  54
587  63
588  60
589  48
590  58
591  59
592  47
593  66
594  59
595  52
596  53
597  53
598  54
599  63
600  54
601  55
602  71
603  58
604  51
605  52
606  52
607  57
608  60
609  63
610  66
611  65
612  58
613  77
614  55
615  68
616  66
617  62
618  66
619  57
620  69
621  59
622  62
623  47
624  67
625  59
626  58
627  61
628  63
629  56
630  53
631  77
632  64
633  58
634  56
635  59
636  63
637  65
638  68
639  73
640  61
641  72
642  65
643  70
644  47
645  54
646  64
647  54
648  56
649  66
650  80
651  56
652  53
653  52
654  55
655  48
656  62
657  76
658  58
659  63
660  62
661  71
662  65
663  53
664  66
665  62
666  75
667  65
668  51
669  67
670  58
671  59
672  61
673  62
674  73
675  74
676  60
677  86
678  67
679  55
680  69
681  49
682  64
683  61
684  67
685  51
686  67
687  75
688  59
689  61
690  61
691  59
692  72
693  53
694  64
695  78
696  67
697  62
698  62
699  60
700  51
701  57
702  55
703  72
704  48
705  66
706  61
707  60
708  67
709  48
710  62
711  51
712  54
713  69
714  71
715  48
716  58
717  72
718  73
719  56
720  83
721  65
722  63
723  59
724  63
725  57
726  59
727  70
728  59
729  54
730  54
731  50
732  56
733  62
734  56
735  62
736  66
737  61
738  74
739  64
740  64
741  68
742  67
743  73
744  64
745  46
746  68
747  70
748  72
749  57
750  48
751  70
752  65
753  65
754  67
755  70
756  54
757  71
758  62
759  66
760  73
761  53
762  71
763  67
764  64
765  72
766  86
767  54
768  71
769  55
770  64
771  55
772  59
773  49
774  58
775  58
776  61
777  61
778  55
779  69
780  52
781  63
782  70
783  72
784  50
785  60
786  69
787  61
788  72
789  62
790  65
791  67
792  56
793  65
794  77
795  64
796  73
797  64
798  67
799  66
800  78
801  55
802  57
803  55
804  61
805  55
806  51
807  79
808  66
809  65
810  74
811  65
812  60
813  69
814  61
815  78
816  68
817  61
818  66
819  47
820  59
821  68
822  60
823  57
824  63
825  54
826  62
827  63
828  73
829  77
830  64
831  58
832  56
833  57
834  67
835  57
836  41
837  53
838  56
839  77
840  51
841  53
842  85
843  56
844  63
845  61
846  58
847  60
848  68
849  65
850  68
851  68
852  60
853  59
854  72
855  61
856  53
857  54
858  64
859  71
860  57
861  67
862  54
863  53
864  49
865  66
866  59
867  58
868  59
869  64
870  60
871  56
872  49
873  56
874  59
875  61
876  69
877  73
878  60
879  40
880  68
881  52
882  66
883  58
884  50
885  58
886  57
887  60
888  62
889  62
890  58
891  68
892  57
893  62
894  53
895  67
896  70
897  60
898  69
899  69
900  49
901  61
902  64
903  74
904  69
905  56
906  60
907  66
908  67
909  67
910  60
911  48
912  72
913  76
914  64
915  59
916  64
917  68
918  71
919  63
920  62
921  68
922  43
923  68
924  70
925  54
926  54
927  48
928  56
929  65
930  61
931  60
932  72
933  68
934  80
935  81
936  66
937  79
938  59
939  67
940  60
941  61
942  55
943  54
944  63
945  68
946  70
947  61
948  66
949  54
950  58
951  56
952  56
953  70
954  61
955  73
956  71
957  59
958  47
959  54
960  66
961  52
962  55
963  46
964  56
965  62
966  53
967  60
968  71
969  65
970  61
971  59
972  65
973  67
974  68
975  71
976  83
977  56
978  56
979  60
980  56
981  59
982  55
983  64
984  67
985  69
986  53
987  68
988  68
989  58
990  64
991  64
992  67
993  56
994  56
995  69
996  59
997  74
998  77
999  54
1000  67
1001  61
1002  55
1003  67
1004  65
1005  65
1006  67
1007  64
1008  73
1009  80
1010  63
1011  61
1012  66
1013  60
1014  72
1015  55
1016  58
1017  64
1018  72
1019  62
1020  74
1021  66
1022  68
1023  73
1024  61
1025  45
1026  55
1027  58
1028  63
1029  68
1030  66
1031  58
1032  71
1033  62
1034  66
1035  72
1036  71
1037  76
1038  69
1039  75
1040  65
1041  74
1042  52
1043  68
1044  55
1045  58
1046  70
1047  71
1048  51
1049  80
1050  72
1051  68
1052  69
1053  65
1054  53
1055  69
1056  68
1057  69
1058  77
1059  55
1060  57
1061  74
1062  81
1063  57
1064  73
1065  82
1066  69
1067  62
1068  70
1069  70
1070  56
1071  74
1072  86
1073  71
1074  79
1075  50
1076  65
1077  53
1078  79
1079  67
1080  60
1081  78
1082  55
1083  62
1084  72
1085  58
1086  63
1087  64
1088  68
1089  69
1090  75
1091  63
1092  46
1093  62
1094  67
1095  72
1096  70
1097  51
1098  63
1099  66
1100  81
1101  51
1102  63
1103  72
1104  70
1105  60
1106  67
1107  60
1108  61
1109  55
1110  56
1111  64
1112  73
1113  58
1114  63
1115  57
1116  70
1117  60
1118  70
1119  61
1120  56
1121  70
1122  69
1123  75
1124  75
1125  67
1126  69
1127  65
1128  67
1129  58
1130  68
1131  67
1132  69
1133  61
1134  65
1135  72
1136  79
1137  71
1138  66
1139  66
1140  60
1141  73
1142  66
1143  71
1144  61
1145  65
1146  74
1147  70
1148  82
1149  72
1150  71
1151  72
1152  55
1153  66
1154  88
1155  83
1156  66
1157  69
1158  74
1159  76
1160  71
1161  83
1162  82
1163  77
1164  72
1165  82
1166  64
1167  72
1168  75
1169  73
1170  69
1171  65
1172  89
1173  87
1174  69
1175  76
1176  70
1177  76
1178  76
1179  68
1180  64
1181  67
1182  83
1183  55
1184  77
1185  67
1186  74
1187  74
1188  76
1189  74
1190  64
1191  74
1192  77
1193  68
1194  83
1195  83
1196  76
1197  80
1198  97
1199  61
1200  94
1201  88
1202  89
1203  84
1204  90
1205  91
1206  95
1207  90
1208  84
1209  98
1210  90
1211  78
1212  87
1213  87
1214  92
1215  88
1216  86
1217  112
1218  82
1219  84
1220  84
1221  106
1222  95
1223  70
1224  80
1225  59
1226  101
1227  76
1228  74
1229  79
1230  87
1231  91
1232  86
1233  78
1234  75
1235  72
1236  76
1237  66
1238  71
1239  74
1240  61
1241  85
1242  77
1243  55
1244  80
1245  78
1246  70
1247  79
1248  85
1249  78
1250  90
1251  75
1252  81
1253  75
1254  67
1255  72
1256  60
1257  76
1258  72
1259  74
1260  69
1261  74
1262  79
1263  56
1264  80
1265  69
1266  78
1267  74
1268  73
1269  79
1270  75
1271  83
1272  74
1273  82
1274  67
1275  64
1276  83
1277  73
1278  74
1279  73
1280  78
1281  89
1282  74
1283  74
1284  83
1285  88
1286  79
1287  62
1288  85
1289  86
1290  83
1291  86
1292  73
1293  78
1294  81
1295  73
1296  80
1297  63
1298  96
1299  76
1300  83
1301  69
1302  91
1303  67
1304  64
1305  103
1306  78
1307  80
1308  70
1309  88
1310  77
1311  76
1312  72
1313  74
1314  79
1315  77
1316  71
1317  78
1318  92
1319  80
1320  88
1321  82
1322  83
1323  90
1324  93
1325  83
1326  94
1327  79
1328  95
1329  77
1330  94
1331  102
1332  93
1333  104
1334  102
1335  75
1336  107
1337  96
1338  92
1339  73
1340  94
1341  103
1342  78
1343  97
1344  94
1345  85
1346  89
1347  72
1348  79
1349  98
1350  86
1351  64
1352  76
1353  82
1354  76
1355  85
1356  64
1357  69
1358  64
1359  76
1360  102
1361  64
1362  81
1363  90
1364  69
1365  74
1366  67
1367  76
1368  76
1369  72
1370  77
1371  69
1372  76
1373  80
1374  70
1375  59
1376  62
1377  77
1378  64
1379  65
1380  71
1381  83
1382  82
1383  69
1384  52
1385  79
1386  75
1387  73
1388  56
1389  61
1390  72
1391  68
1392  77
1393  70
1394  71
1395  72
1396  58
1397  64
1398  72
1399  58
1400  73
1401  68
1402  69
1403  60
1404  64
1405  82
1406  76
1407  57
1408  63
1409  82
1410  56
1411  80
1412  71
1413  88
1414  55
1415  79
1416  78
1417  61
1418  74
1419  63
1420  69
1421  69
1422  70
1423  55
1424  83
1425  67
1426  60
1427  75
1428  53
1429  61
1430  66
1431  67
1432  70
1433  60
1434  77
1435  86
1436  84
1437  65
1438  85
1439  59
1440  81
1441  65
1442  83
1443  80
1444  65
1445  63
1446  60
1447  82
1448  64
1449  78
1450  73
1451  76
1452  55
1453  64
1454  75
1455  69
1456  61
1457  76
1458  59
1459  51
1460  81
1461  67
1462  63
1463  74
1464  76
1465  61
1466  72
1467  60
1468  64
1469  80
1470  73
1471  59
1472  76
1473  61
1474  82
1475  74
1476  69
1477  64
1478  89
1479  56
1480  63
1481  62
1482  52
1483  70
1484  62
1485  72
1486  56
1487  62
1488  75
1489  71
1490  76
1491  78
1492  52
1493  71
1494  49
1495  73
1496  70
1497  69
1498  65
1499  71
1500  65
1501  84
1502  64
1503  54
1504  70
1505  74
1506  57
1507  81
1508  62
1509  61
1510  66
1511  70
1512  53
1513  83
1514  65
1515  60
1516  93
1517  76
1518  76
1519  54
1520  66
1521  76
1522  80
1523  57
1524  56
1525  72
1526  60
1527  58
1528  67
1529  66
1530  68
1531  71
1532  62
1533  61
1534  67
1535  68
1536  69
1537  55
1538  54
1539  64
1540  69
1541  65
1542  61
1543  66
1544  63
1545  75
1546  65
1547  76
1548  62
1549  72
1550  75
1551  62
1552  55
1553  72
1554  62
1555  75
1556  62
1557  64
1558  65
1559  71
1560  75
1561  77
1562  61
1563  61
1564  74
1565  58
1566  57
1567  72
1568  55
1569  75
1570  64
1571  72
1572  63
1573  81
1574  55
1575  59
1576  45
1577  58
1578  59
1579  59
1580  64
1581  55
1582  61
1583  79
1584  62
1585  58
1586  57
1587  61
1588  71
1589  67
1590  83
1591  85
1592  66
1593  71
1594  72
1595  64
1596  67
1597  65
1598  58
1599  70
1600  66
1601  70
1602  68
1603  63
1604  84
1605  74
1606  69
1607  57
1608  55
1609  74
1610  61
1611  62
1612  63
1613  69
1614  48
1615  74
1616  74
1617  71
1618  65
1619  65
1620  68
1621  71
1622  68
1623  61
1624  72
1625  73
1626  64
1627  55
1628  62
1629  66
1630  71
1631  66
1632  63
1633  65
1634  69
1635  70
1636  67
1637  73
1638  58
1639  68
1640  60
1641  73
1642  48
1643  88
1644  55
1645  64
1646  72
1647  65
1648  63
1649  49
1650  51
1651  56
1652  57
1653  74
1654  61
1655  59
1656  75
1657  61
1658  64
1659  66
1660  72
1661  59
1662  65
1663  57
1664  57
1665  73
1666  47
1667  52
1668  65
1669  77
1670  71
1671  83
1672  65
1673  86
1674  59
1675  69
1676  82
1677  62
1678  66
1679  65
1680  58
1681  70
1682  79
1683  58
1684  78
1685  59
1686  72
1687  57
1688  51
1689  67
1690  57
1691  64
1692  84
1693  65
1694  57
1695  65
1696  59
1697  62
1698  63
1699  69
1700  72
1701  75
1702  68
1703  72
1704  80
1705  62
1706  89
1707  57
1708  70
1709  69
1710  59
1711  89
1712  73
1713  76
1714  67
1715  72
1716  71
1717  67
1718  72
1719  70
1720  66
1721  55
1722  69
1723  71
1724  84
1725  67
1726  76
1727  65
1728  77
1729  66
1730  59
1731  73
1732  75
1733  69
1734  55
1735  69
1736  70
1737  68
1738  68
1739  74
1740  63
1741  68
1742  83
1743  57
1744  78
1745  71
1746  77
1747  65
1748  58
1749  85
1750  73
1751  63
1752  57
1753  65
1754  51
1755  64
1756  79
1757  67
1758  78
1759  68
1760  69
1761  74
1762  73
1763  67
1764  62
1765  80
1766  67
1767  61
1768  80
1769  69
1770  72
1771  43
1772  87
1773  82
1774  62
1775  61
1776  67
1777  75
1778  72
1779  61
1780  61
1781  45
1782  62
1783  76
1784  77
1785  80
1786  71
1787  69
1788  75
1789  76
1790  75
1791  68
1792  74
1793  85
1794  81
1795  71
1796  71
1797  79
1798  61
1799  95
1800  101
1801  66
1802  82
1803  66
1804  80
1805  75
1806  85
1807  92
1808  83
1809  106
1810  95
1811  81
1812  82
1813  103
1814  98
1815  74
1816  107
1817  100
1818  115
1819  100
1820  117
1821  91
1822  115
1823  102
1824  147
1825  140
1826  130
1827  150
1828  148
1829  165
1830  156
1831  167
1832  167
1833  171
1834  165
1835  223
1836  235
1837  228
1838  254
1839  237
1840  327
1841  316
1842  324
1843  361
1844  379
1845  404
1846  410
1847  441
1848  533
1849  513
1850  572
1851  635
1852  610
1853  647
1854  671
1855  663
1856  722
1857  759
1858  754
1859  840
1860  887
1861  906
1862  920
1863  989
1864  979
1865  1073
1866  1030
1867  1037
1868  1146
1869  1146
1870  1210
1871  1211
1872  1358
1873  1264
1874  1354
1875  1359
1876  1301
1877  1374
1878  1418
1879  1465
1880  1529
1881  1421
1882  1527
1883  1469
1884  1482
1885  1432
1886  1381
1887  1476
1888  1442
1889  1413
1890  1501
1891  1377
1892  1423
1893  1383
1894  1318
1895  1319
1896  1180
1897  1219
1898  1129
1899  1068
1900  990
1901  914
1902  843
1903  798
1904  773
1905  641
1906  620
1907  566
1908  513
1909  478
1910  434
1911  391
1912  390
1913  320
1914  333
1915  351
1916  285
1917  257
1918  262
1919  249
1920  244
1921  224
1922  232
1923  248
1924  242
1925  268
1926  239
1927  199
1928  245
1929  231
1930  243
1931  229
1932  275
1933  255
1934  256
1935  258
1936  285
1937  294
1938  272
1939  295
1940  296
1941  314
1942  305
1943  307
1944  306
1945  336
1946  334
1947  337
1948  316
1949  347
1950  374
1951  371
1952  406
1953  390
1954  430
1955  438
1956  425
1957  504
1958  493
1959  495
1960  529
1961  560
1962  550
1963  551
1964  593
1965  624
1966  645
1967  677
1968  699
1969  726
1970  788
1971  802
1972  785
1973  868
1974  918
1975  884
1976  908
1977  936
1978  962
1979  1020
1980  976
1981  1116
1982  1081
1983  1095
1984  1111
1985  1201
1986  1156
1987  1230
1988  1205
1989  1220
1990  1234
1991  1345
1992  1270
1993  1359
1994  1280
1995  1375
1996  1290
1997  1434
1998  1437
1999  1428
2000  1387
2001  1485
2002  1402
2003  1476
2004  1427
2005  1514
2006  1437
2007  1585
2008  1522
2009  1476
2010  1504
2011  1501
2012  1495
2013  1391
2014  1441
2015  1423
2016  1382
2017  1313
2018  1331
2019  1254
2020  1184
2021  1190
2022  1099
2023  1102
2024  989
2025  907
2026  902
2027  777
2028  742
2029  627
2030  633
2031  531
2032  485
2033  442
2034  405
2035  376
2036  345
2037  314
2038  301
2039  279
2040  281
2041  260
2042  220
2043  213
2044  237
2045  225
2046  185
2047  187
2048  195
2049  173
2050  195
2051  169
2052  143
2053  161
2054  190
2055  176
2056  146
2057  150
2058  195
2059  148
2060  162
2061  155
2062  163
2063  151
2064  144
2065  132
2066  133
2067  133
2068  149
2069  153
2070  149
2071  125
2072  153
2073  109
2074  163
2075  118
2076  109
2077  152
2078  153
2079  132
2080  125
2081  132
2082  135
2083  142
2084  108
2085  125
2086  132
2087  115
2088  126
2089  137
2090  120
2091  123
2092  127
2093  154
2094  113
2095  112
2096  147
2097  132
2098  120
2099  110
2100  117
2101  115
2102  131
2103  124
2104  101
2105  114
2106  99
2107  111
2108  101
2109  101
2110  96
2111  113
2112  122
2113  114
2114  111
2115  106
2116  116
2117  99
2118  99
2119  111
2120  93
2121  95
2122  91
2123  96
2124  115
2125  105
2126  82
2127  92
2128  100
2129  110
2130  75
2131  93
2132  99
2133  90
2134  79
2135  76
2136  70
2137  82
2138  96
2139  75
2140  81
2141  86
2142  101
2143  70
2144  82
2145  83
2146  69
2147  74
2148  73
2149  75
2150  61
2151  75
2152  69
2153  97
2154  72
2155  65
2156  73
2157  94
2158  81
2159  74
2160  71
2161  72
2162  56
2163  74
2164  79
2165  58
2166  73
2167  70
2168  65
2169  78
2170  60
2171  76
2172  55
2173  79
2174  60
2175  65
2176  61
2177  67
2178  71
2179  65
2180  63
2181  67
2182  63
2183  58
2184  60
2185  66
2186  60
2187  65
2188  72
2189  75
2190  65
2191  64
2192  62
2193  66
2194  54
2195  50
2196  65
2197  88
2198  66
2199  50
2200  62
2201  67
2202  68
2203  60
2204  65
2205  59
2206  70
2207  53
2208  64
2209  59
2210  55
2211  75
2212  54
2213  70
2214  67
2215  50
2216  65
2217  58
2218  74
2219  67
2220  62
2221  59
2222  72
2223  64
2224  70
2225  66
2226  82
2227  70
2228  63
2229  72
2230  70
2231  51
2232  71
2233  61
2234  63
2235  67
2236  75
2237  73
2238  73
2239  74
2240  61
2241  74
2242  53
2243  71
2244  55
2245  71
2246  63
2247  60
2248  64
2249  66
2250  68
2251  56
2252  54
2253  56
2254  74
2255  51
2256  62
2257  54
2258  55
2259  53
2260  69
2261  56
2262  65
2263  59
2264  66
2265  56
2266  62
2267  55
2268  66
2269  66
2270  59
2271  56
2272  63
2273  59
2274  65
2275  70
2276  53
2277  71
2278  57
2279  78
2280  61
2281  65
2282  75
2283  54
2284  67
2285  70
2286  72
2287  58
2288  63
2289  51
2290  80
2291  60
2292  64
2293  62
2294  64
2295  64
2296  85
2297  70
2298  60
2299  65
2300  46
2301  78
2302  70
2303  58
2304  57
2305  52
2306  66
2307  51
2308  55
2309  66
2310  57
2311  52
2312  69
2313  77
2314  58
2315  43
2316  60
2317  66
2318  64
2319  59
2320  69
2321  57
2322  74
2323  66
2324  61
2325  67
2326  63
2327  71
2328  55
2329  53
2330  64
2331  58
2332  39
2333  62
2334  66
2335  60
2336  63
2337  53
2338  69
2339  70
2340  69
2341  47
2342  62
2343  44
2344  81
2345  61
2346  54
2347  58
2348  62
2349  50
2350  58
2351  58
2352  56
2353  70
2354  51
2355  64
2356  81
2357  68
2358  68
2359  75
2360  62
2361  55
2362  59
2363  63
2364  64
2365  69
2366  60
2367  39
2368  52
2369  65
2370  58
2371  67
2372  50
2373  59
2374  60
2375  74
2376  64
2377  65
2378  54
2379  60
2380  64
2381  66
2382  74
2383  52
2384  71
2385  64
2386  76
2387  62
2388  79
2389  61
2390  61
2391  57
2392  60
2393  76
2394  72
2395  64
2396  64
2397  57
2398  52
2399  48
2400  78
2401  59
2402  67
2403  69
2404  64
2405  64
2406  53
2407  58
2408  60
2409  59
2410  75
2411  55
2412  72
2413  60
2414  66
2415  54
2416  75
2417  66
2418  66
2419  68
2420  63
2421  64
2422  44
2423  55
2424  65
2425  64
2426  52
2427  75
2428  56
2429  59
2430  63
2431  63
2432  71
2433  60
2434  61
2435  67
2436  67
2437  62
2438  60
2439  54
2440  69
2441  55
2442  63
2443  58
2444  78
2445  79
2446  57
2447  73
2448  66
2449  70
2450  79
2451  70
2452  65
2453  53
2454  70
2455  61
2456  75
2457  48
2458  67
2459  63
2460  63
2461  66
2462  65
2463  58
2464  52
2465  60
2466  68
2467  64
2468  73
2469  69
2470  55
2471  59
2472  53
2473  64
2474  54
2475  69
2476  58
2477  58
2478  65
2479  51
2480  53
2481  60
2482  56
2483  59
2484  60
2485  62
2486  68
2487  65
2488  59
2489  56
2490  61
2491  70
2492  64
2493  57
2494  59
2495  60
2496  71
2497  68
2498  64
2499  52
2500  51
2501  73
2502  59
2503  55
2504  68
2505  57
2506  58
2507  75
2508  73
2509  62
2510  67
2511  52
2512  56
2513  68
2514  53
2515  63
2516  63
2517  59
2518  60
2519  78
2520  68
2521  58
2522  53
2523  74
2524  56
2525  64
2526  68
2527  64
2528  72
2529  51
2530  52
2531  64
2532  62
2533  52
2534  61
2535  69
2536  75
2537  74
2538  59
2539  55
2540  65
2541  61
2542  50
2543  56
2544  61
2545  60
2546  65
2547  65
2548  47
2549  56
2550  57
2551  46
2552  67
2553  62
2554  60
2555  48
2556  50
2557  55
2558  52
2559  54
2560  76
2561  56
2562  70
2563  72
2564  60
2565  67
2566  67
2567  57
2568  66
2569  65
2570  54
2571  47
2572  60
2573  53
2574  61
2575  76
2576  84
2577  67
2578  66
2579  58
2580  58
2581  67
2582  64
2583  57
2584  58
2585  65
2586  63
2587  70
2588  71
2589  65
2590  52
2591  61
2592  63
2593  56
2594  63
2595  68
2596  52
2597  68
2598  51
2599  60
2600  56
2601  55
2602  53
2603  57
2604  51
2605  78
2606  49
2607  54
2608  65
2609  60
2610  53
2611  64
2612  57
2613  64
2614  70
2615  59
2616  56
2617  60
2618  65
2619  59
2620  65
2621  63
2622  50
2623  65
2624  60
2625  57
2626  59
2627  61
2628  59
2629  75
2630  76
2631  62
2632  57
2633  54
2634  63
2635  66
2636  68
2637  67
2638  48
2639  56
2640  66
2641  62
2642  40
2643  69
2644  67
2645  67
2646  61
2647  64
2648  49
2649  60
2650  55
2651  53
2652  48
2653  69
2654  56
2655  59
2656  73
2657  67
2658  61
2659  66
2660  54
2661  57
2662  74
2663  70
2664  61
2665  62
2666  49
2667  59
2668  52
2669  66
2670  76
2671  66
2672  62
2673  51
2674  50
2675  62
2676  67
2677  66
2678  72
2679  57
2680  49
2681  71
2682  56
2683  60
2684  58
2685  64
2686  54
2687  67
2688  69
2689  53
2690  65
2691  61
2692  69
2693  64
2694  68
2695  63
2696  62
2697  58
2698  59
2699  64
2700  67
2701  73
2702  63
2703  59
2704  63
2705  40
2706  54
2707  75
2708  66
2709  66
2710  55
2711  77
2712  52
2713  53
2714  60
2715  73
2716  58
2717  62
2718  70
2719  63
2720  47
2721  54
2722  61
2723  74
2724  68
2725  59
2726  52
2727  53
2728  72
2729  55
2730  69
2731  59
2732  67
2733  51
2734  62
2735  74
2736  60
2737  64
2738  68
2739  55
2740  54
2741  52
2742  69
2743  71
2744  60
2745  62
2746  55
2747  69
2748  69
2749  57
2750  59
2751  66
2752  63
2753  71
2754  61
2755  58
2756  61
2757  58
2758  58
2759  71
2760  70
2761  67
2762  68
2763  58
2764  50
2765  53
2766  75
2767  58
2768  59
2769  62
2770  44
2771  64
2772  80
2773  56
2774  62
2775  64
2776  59
2777  68
2778  50
2779  53
2780  64
2781  53
2782  72
2783  64
2784  51
2785  56
2786  74
2787  62
2788  61
2789  72
2790  70
2791  68
2792  45
2793  66
2794  56
2795  64
2796  66
2797  67
2798  59
2799  65
2800  50
2801  72
2802  64
2803  64
2804  54
2805  65
2806  55
2807  50
2808  56
2809  66
2810  73
2811  71
2812  70
2813  56
2814  59
2815  54
2816  62
2817  62
2818  66
2819  75
2820  79
2821  90
2822  87
2823  91
2824  86
2825  89
2826  95
2827  88
2828  105
2829  114
2830  113
2831  111
2832  116
2833  136
2834  122
2835  125
2836  130
2837  134
2838  144
2839  126
2840  122
2841  144
2842  121
2843  95
2844  119
2845  131
2846  108
2847  118
2848  100
2849  100
2850  98
2851  100
2852  97
2853  88
2854  107
2855  82
2856  79
2857  88
2858  78
2859  80
2860  79
2861  85
2862  68
2863  74
2864  72
2865  66
2866  68
2867  66
2868  66
2869  73
2870  76
2871  74
2872  75
2873  57
2874  58
2875  82
2876  68
2877  71
2878  71
2879  69
2880  69
2881  85
2882  69
2883  69
2884  78
2885  68
2886  64
2887  75
2888  75
2889  66
2890  75
2891  83
2892  72
2893  59
2894  64
2895  69
2896  74
2897  59
2898  72
2899  57
2900  63
2901  68
2902  66
2903  58
2904  69
2905  67
2906  68
2907  52
2908  66
2909  68
2910  71
2911  76
2912  88
2913  53
2914  69
2915  83
2916  73
2917  103
2918  81
2919  93
2920  73
2921  114
2922  99
2923  92
2924  74
2925  105
2926  83
2927  87
2928  103
2929  91
2930  116
2931  88
2932  89
2933  85
2934  88
2935  83
2936  94
2937  88
2938  83
2939  85
2940  76
2941  84
2942  88
2943  103
2944  110
2945  88
2946  105
2947  106
2948  81
2949  102
2950  101
2951  131
2952  108
2953  120
2954  139
2955  101
2956  129
2957  138
2958  130
2959  127
2960  131
2961  142
2962  115
2963  123
2964  135
2965  128
2966  106
2967  132
2968  132
2969  126
2970  101
2971  114
2972  118
2973  94
2974  103
2975  102
2976  85
2977  98
2978  88
2979  85
2980  95
2981  79
2982  77
2983  80
2984  77
2985  80
2986  64
2987  78
2988  69
2989  80
2990  94
2991  80
2992  81
2993  64
2994  91
2995  81
2996  86
2997  76
2998  71
2999  66
3000  76
3001  78
3002  71
3003  66
3004  69
3005  63
3006  68
3007  53
3008  85
3009  71
3010  60
3011  65
3012  69
3013  77
3014  68
3015  53
3016  72
3017  69
3018  68
3019  68
3020  68
3021  71
3022  73
3023  80
3024  58
3025  70
3026  90
3027  67
3028  79
3029  83
3030  69
3031  70
3032  70
3033  60
3034  82
3035  74
3036  64
3037  61
3038  61
3039  74
3040  63
3041  74
3042  70
3043  63
3044  57
3045  67
3046  83
3047  76
3048  58
3049  48
3050  71
3051  53
3052  79
3053  66
3054  60
3055  65
3056  53
3057  49
3058  59
3059  80
3060  58
3061  72
3062  50
3063  71
3064  64
3065  81
3066  66
3067  65
3068  60
3069  71
3070  57
3071  61
3072  70
3073  59
3074  85
3075  74
3076  71
3077  68
3078  64
3079  66
3080  49
3081  65
3082  71
3083  72
3084  76
3085  61
3086  54
3087  71
3088  37
3089  70
3090  80
3091  66
3092  79
3093  67
3094  70
3095  80
3096  66
3097  73
3098  53
3099  74
3100  58
3101  66
3102  72
3103  56
3104  58
3105  63
3106  57
3107  77
3108  51
3109  74
3110  53
3111  58
3112  70
3113  64
3114  56
3115  51
3116  73
3117  58
3118  65
3119  71
3120  60
3121  64
3122  63
3123  53
3124  59
3125  68
3126  57
3127  63
3128  53
3129  62
3130  66
3131  54
3132  74
3133  54
3134  65
3135  67
3136  54
3137  64
3138  61
3139  57
3140  53
3141  65
3142  64
3143  73
3144  64
3145  54
3146  66
3147  57
3148  65
3149  70
3150  72
3151  56
3152  70
3153  58
3154  64
3155  63
3156  61
3157  64
3158  63
3159  68
3160  55
3161  62
3162  57
3163  67
3164  65
3165  66
3166  66
3167  70
3168  62
3169  70
3170  68
3171  63
3172  58
3173  47
3174  61
3175  67
3176  70
3177  61
3178  60
3179  71
3180  81
3181  57
3182  61
3183  50
3184  72
3185  54
3186  52
3187  62
3188  62
3189  67
3190  66
3191  67
3192  73
3193  58
3194  79
3195  55
3196  63
3197  65
3198  52
3199  52
3200  64
3201  67
3202  62
3203  54
3204  72
3205  53
3206  68
3207  72
3208  60
3209  54
3210  71
3211  64
3212  60
3213  68
3214  68
3215  57
3216  55
3217  57
3218  53
3219  77
3220  63
3221  63
3222  73
3223  44
3224  66
3225  68
3226  57
3227  59
3228  59
3229  68
3230  74
3231  65
3232  64
3233  71
3234  76
3235  70
3236  61
3237  83
3238  64
3239  61
3240  55
3241  68
3242  66
3243  60
3244  65
3245  58
3246  63
3247  77
3248  75
3249  56
3250  70
3251  63
3252  55
3253  65
3254  57
3255  49
3256  57
3257  60
3258  61
3259  64
3260  70
3261  60
3262  52
3263  48
3264  69
3265  63
3266  66
3267  59
3268  50
3269  48
3270  59
3271  54
3272  53
3273  61
3274  68
3275  58
3276  64
3277  59
3278  68
3279  66
3280  52
3281  85
3282  64
3283  54
3284  57
3285  66
3286  53
3287  72
3288  61
3289  56
3290  57
3291  53
3292  59
3293  70
3294  51
3295  91
3296  76
3297  64
3298  69
3299  55
3300  66
3301  79
3302  78
3303  54
3304  54
3305  55
3306  62
3307  54
3308  58
3309  58
3310  54
3311  65
3312  65
3313  73
3314  64
3315  64
3316  58
3317  59
3318  50
3319  62
3320  76
3321  54
3322  55
3323  51
3324  50
3325  64
3326  67
3327  67
3328  55
3329  54
3330  35
3331  56
3332  72
3333  57
3334  57
3335  60
3336  64
3337  67
3338  64
3339  68
3340  45
3341  70
3342  73
3343  64
3344  65
3345  86
3346  67
3347  56
3348  53
3349  59
3350  54
3351  65
3352  57
3353  76
3354  58
3355  61
3356  51
3357  51
3358  55
3359  73
3360  52
3361  62
3362  76
3363  63
3364  74
3365  70
3366  54
3367  64
3368  49
3369  59
3370  65
3371  65
3372  50
3373  81
3374  56
3375  63
3376  62
3377  67
3378  70
3379  44
3380  62
3381  66
3382  50
3383  67
3384  66
3385  71
3386  66
3387  63
3388  61
3389  74
3390  52
3391  66
3392  60
3393  53
3394  59
3395  50
3396  72
3397  57
3398  58
3399  70
3400  71
3401  74
3402  63
3403  62
3404  77
3405  60
3406  61
3407  58
3408  74
3409  59
3410  47
3411  47
3412  31
3413  38
3414  39
3415  34
3416  38
3417  28
3418  28
3419  22
3420  32
3421  15
3422  19
3423  12
3424  8
3425  7
3426  5
3427  4
3428  1
3429  0
3430  1
3431  0
3432  0
3433  0
3434  0
3435  0
3436  0
3437  0
3438  0
3439  0
3440  0
3441  0
3442  0
3443  0
3444  0
3445  0
3446  0
3447  0
3448  0
3449  0
3450  0
3451  0
3452  0
3453  0
3454  0
3455  0
3456  0
3457  0
3458  0
3459  0
3460  0
3461  0
3462  0
3463  0
3464  0
3465  0
3466  0
3467  0
3468  0
3469  0
3470  0
3471  0
3472  0
3473  0
3474  0
3475  0
3476  0
3477  0
3478  0
3479  0
3480  0
3481  0
3482  0
3483  0
3484  0
3485  0
3486  0
3487  0
3488  0
3489  0
3490  0
3491  0
3492  0
3493  0
3494  0
3495  0
3496  0
3497  0
3498  0
3499  0
3500  0
3501  0
3502  0
3503  0
3504  0
3505  0
3506  0
3507  0
3508  0
3509  0
3510  0
3511  0
3512  0
3513  0
3514  0
3515  0
3516  0
3517  0
3518  0
3519  0
3520  0
3521  0
3522  0
3523  0
3524  0
3525  0
3526  0
3527  0
3528  0
3529  0
3530  1
3531  0
3532  0
3533  1
3534  0
3535  0
3536  0
3537  0
3538  0
3539  0
3540  0
3541  0
3542  0
3543  0
3544  0
3545  0
3546  0
3547  0
3548  0
3549  0
3550  0
3551  0
3552  0
3553  0
3554  0
3555  0
3556  0
3557  0
3558  0
3559  0
3560  0
3561  0
3562  0
3563  0
3564  0
3565  0
3566  0
3567  0
3568  0
3569  0
3570  0
3571  0
3572  0
3573  0
3574  0
3575  0
3576  0
3577  0
3578  0
3579  0
3580  0
3581  0
3582  0
3583  0
3584  0
3585  0
3586  0
3587  0
3588  1
3589  0
3590  0
3591  0
3592  0
3593  0
3594  0
3595  0
3596  0
3597  0
3598  0
3599  0
3600  0
3601  0
3602  0
3603  0
3604  0
3605  0
3606  0
3607  0
3608  0
3609  0
3610  0
3611  0
3612  0
3613  0
3614  0
3615  0
3616  0
3617  0
3618  0
3619  0
3620  0
3621  0
3622  0
3623  0
3624  0
3625  0
3626  0
3627  0
3628  0
3629  0
3630  0
3631  0
3632  0
3633  0
3634  0
3635  0
3636  0
3637  0
3638  0
3639  0
3640  0
3641  0
3642  0
3643  0
3644  0
3645  0
3646  0
3647  0
3648  0
3649  0
3650  0
3651  0
3652  0
3653  0
3654  0
3655  0
3656  0
3657  0
3658  0
3659  0
3660  0
3661  0
3662  0
3663  0
3664  0
3665  0
3666  0
3667  0
3668  0
3669  0
3670  0
3671  0
3672  0
3673  0
3674  0
3675  0
3676  0
3677  0
3678  0
3679  0
3680  0
3681  0
3682  0
3683  0
3684  0
3685  0
3686  0
3687  0
3688  0
3689  0
3690  0
3691  0
3692  0
3693  0
3694  0
3695  0
3696  0
3697  0
3698  0
3699  0
3700  0
3701  0
3702  0
3703  0
3704  0
3705  0
3706  0
3707  0
3708  0
3709  0
3710  0
3711  0
3712  0
3713  0
3714  0
3715  0
3716  0
3717  0
3718  0
3719  0
3720  0
3721  0
3722  1
3723  0
3724  0
3725  0
3726  0
3727  0
3728  0
3729  0
3730  0
3731  0
3732  0
3733  0
3734  0
3735  0
3736  0
3737  0
3738  0
3739  0
3740  0
3741  0
3742  0
3743  0
3744  0
3745  0
3746  0
3747  0
3748  0
3749  0
3750  0
3751  0
3752  0
3753  0
3754  0
3755  0
3756  0
3757  0
3758  0
3759  0
3760  0
3761  0
3762  0
3763  0
3764  0
3765  0
3766  0
3767  0
3768  0
3769  0
3770  0
3771  0
3772  0
3773  0
3774  0
3775  0
3776  0
3777  0
3778  0
3779  0
3780  0
3781  0
3782  0
3783  0
3784  0
3785  0
3786  0
3787  0
3788  0
3789  0
3790  0
3791  0
3792  0
3793  0
3794  0
3795  0
3796  0
3797  0
3798  0
3799  0
3800  0
3801  0
3802  0
3803  0
3804  0
3805  0
3806  0
3807  0
3808  0
3809  0
3810  0
3811  0
3812  0
3813  0
3814  0
3815  0
3816  0
3817  0
3818  0
3819  0
3820  0
3821  0
3822  0
3823  0
3824  0
3825  0
3826  0
3827  0
3828  0
3829  0
3830  0
3831  0
3832  0
3833  0
3834  0
3835  0
3836  0
3837  0
3838  0
3839  0
3840  0
3841  0
3842  0
3843  0
3844  0
3845  0
3846  0
3847  0
3848  0
3849  0
3850  0
3851  0
3852  0
3853  0
3854  0
3855  0
3856  0
3857  0
3858  0
3859  0
3860  0
3861  0
3862  0
3863  0
3864  0
3865  0
3866  0
3867  0
3868  0
3869  0
3870  0
3871  0
3872  0
3873  0
3874  0
3875  0
3876  0
3877  0
3878  0
3879  0
3880  0
3881  0
3882  0
3883  0
3884  0
3885  0
3886  0
3887  0
3888  0
3889  0
3890  0
3891  0
3892  0
3893  0
3894  0
3895  0
3896  0
3897  0
3898  0
3899  0
3900  0
3901  0
3902  0
3903  0
3904  0
3905  0
3906  0
3907  0
3908  0
3909  0
3910  0
3911  0
3912  0
3913  0
3914  0
3915  0
3916  0
3917  0
3918  0
3919  0
3920  0
3921  0
3922  0
3923  0
3924  0
3925  0
3926  0
3927  0
3928  0
3929  0
3930  0
3931  0
3932  0
3933  0
3934  0
3935  0
3936  0
3937  0
3938  0
3939  0
3940  0
3941  0
3942  0
3943  0
3944  0
3945  0
3946  0
3947  0
3948  0
3949  0
3950  0
3951  0
3952  0
3953  0
3954  0
3955  0
3956  0
3957  0
3958  0
3959  0
3960  0
3961  0
3962  0
3963  0
3964  0
3965  0
3966  0
3967  0
3968  0
3969  0
3970  0
3971  0
3972  0
3973  0
3974  0
3975  0
3976  0
3977  0
3978  0
3979  0
3980  0
3981  0
3982  0
3983  0
3984  0
3985  0
3986  0
3987  0
3988  0
3989  0
3990  0
3991  0
3992  0
3993  0
3994  0
3995  0
3996  0
3997  0
3998  0
3999  0
4000  0
4001  0
4002  0
4003  0
4004  0
4005  0
4006  0
4007  0
4008  0
4009  0
4010  0
4011  0
4012  0
4013  0
4014  0
4015  0
4016  0
4017  0
4018  0
4019  0
4020  0
4021  0
4022  0
4023  0
4024  0
4025  0
4026  0
4027  0
4028  0
4029  0
4030  0
4031  0
4032  0
4033  0
4034  0
4035  0
4036  0
4037  0
4038  0
4039  0
4040  0
4041  0
4042  0
4043  0
4044  0
4045  0
4046  0
4047  0
4048  0
4049  0
4050  0
4051  0
4052  0
4053  0
4054  0
4055  0
4056  0
4057  0
4058  0
4059  0
4060  0
4061  0
4062  0
4063  0
4064  0
4065  0
4066  0
4067  0
4068  0
4069  0
4070  0
4071  0
4072  0
4073  0
4074  0
4075  0
4076  0
4077  0
4078  0
4079  0
4080  0
4081  0
4082  0
4083  0
4084  0
4085  0
4086  0
4087  0
4088  0
4089  0
4090  0
4091  0
4092  0
4093  0
4094  0
4095  0
