0  0
1  0
2  0
3  0
4  0
5  0
6  0
7  0
8  0
9  0
10  0
11  0
12  0
13  0
14  5
15  128
16  374
17  387
18  147
19  19
20  3
21  5
22  2
23  0
24  0
25  1
26  2
27  2
28  3
29  4
30  2
31  4
32  1
33  2
34  0
35  3
36  2
37  0
38  1
39  1
40  0
41  1
42  0
43  1
44  0
45  0
46  0
47  0
48  0
49  0
50  0
51  0
52  0
53  0
54  0
55  0
56  0
57  0
58  0
59  0
60  0
61  0
62  0
63  0
64  0
65  0
66  0
67  0
68  0
69  0
70  0
71  0
72  0
73  0
74  0
75  0
76  0
77  0
78  0
79  0
80  0
81  0
82  0
83  0
84  0
85  0
86  0
87  0
88  0
89  0
90  0
91  0
92  0
93  0
94  0
95  0
96  0
97  0
98  0
99  0
100  0
101  0
102  0
103  0
104  0
105  0
106  0
107  0
108  0
109  0
110  0
111  0
112  0
113  0
114  0
115  0
116  0
117  0
118  0
119  0
120  0
121  0
122  0
123  0
124  0
125  0
126  0
127  0
128  0
129  0
130  0
131  0
132  0
133  0
134  0
135  0
136  0
137  0
138  0
139  0
140  0
141  0
142  0
143  0
144  0
145  0
146  0
147  0
148  0
149  0
150  0
151  0
152  0
153  0
154  0
155  0
156  0
157  0
158  0
159  0
160  0
161  0
162  0
163  0
164  0
165  0
166  0
167  0
168  0
169  0
170  0
171  0
172  0
173  0
174  0
175  0
176  0
177  0
178  0
179  0
180  0
181  5
182  81
183  254
184  352
185  426
186  462
187  297
188  164
189  88
190  68
191  46
192  51
193  27
194  35
195  23
196  30
197  24
198  21
199  16
200  17
201  18
202  18
203  30
204  28
205  27
206  18
207  25
208  21
209  24
210  25
211  12
212  21
213  17
214  16
215  32
216  15
217  10
218  22
219  24
220  22
221  22
222  27
223  19
224  19
225  22
226  24
227  19
228  13
229  13
230  20
231  18
232  15
233  20
234  25
235  17
236  14
237  22
238  22
239  26
240  20
241  19
242  19
243  19
244  20
245  22
246  16
247  21
248  16
249  17
250  34
251  18
252  20
253  19
254  18
255  14
256  12
257  24
258  25
259  22
260  24
261  16
262  19
263  14
264  24
265  16
266  16
267  21
268  13
269  23
270  14
271  22
272  18
273  17
274  18
275  18
276  23
277  19
278  18
279  15
280  18
281  25
282  19
283  27
284  16
285  17
286  23
287  17
288  15
289  20
290  23
291  31
292  21
293  14
294  18
295  27
296  25
297  20
298  21
299  24
300  24
301  23
302  24
303  22
304  21
305  19
306  23
307  16
308  17
309  15
310  34
311  19
312  18
313  22
314  22
315  16
316  21
317  17
318  15
319  17
320  20
321  18
322  24
323  18
324  19
325  18
326  20
327  18
328  16
329  9
330  22
331  20
332  28
333  27
334  18
335  24
336  20
337  23
338  17
339  21
340  13
341  18
342  24
343  17
344  16
345  12
346  22
347  22
348  20
349  23
350  22
351  18
352  16
353  19
354  14
355  18
356  7
357  22
358  22
359  26
360  13
361  21
362  16
363  19
364  17
365  27
366  20
367  14
368  12
369  15
370  18
371  21
372  23
373  20
374  22
375  13
376  18
377  16
378  17
379  21
380  21
381  20
382  25
383  17
384  21
385  18
386  27
387  25
388  14
389  23
390  17
391  13
392  22
393  19
394  21
395  19
396  18
397  18
398  14
399  17
400  16
401  17
402  25
403  27
404  30
405  21
406  18
407  21
408  17
409  13
410  18
411  16
412  21
413  21
414  19
415  18
416  19
417  14
418  14
419  23
420  16
421  14
422  29
423  19
424  24
425  17
426  15
427  26
428  18
429  24
430  18
431  20
432  24
433  25
434  29
435  22
436  18
437  17
438  12
439  21
440  14
441  15
442  24
443  17
444  21
445  14
446  25
447  20
448  16
449  27
450  10
451  20
452  17
453  31
454  21
455  23
456  17
457  19
458  28
459  18
460  30
461  16
462  14
463  26
464  18
465  20
466  30
467  21
468  14
469  17
470  10
471  32
472  23
473  26
474  17
475  25
476  26
477  22
478  23
479  18
480  19
481  14
482  26
483  20
484  13
485  19
486  14
487  20
488  18
489  20
490  14
491  14
492  25
493  22
494  14
495  22
496  25
497  20
498  16
499  26
500  31
501  23
502  23
503  20
504  22
505  23
506  27
507  20
508  25
509  13
510  15
511  20
512  19
513  14
514  18
515  23
516  16
517  21
518  19
519  19
520  24
521  29
522  27
523  18
524  8
525  15
526  17
527  21
528  18
529  10
530  17
531  27
532  15
533  25
534  26
535  27
536  19
537  23
538  24
539  23
540  20
541  24
542  19
543  21
544  17
545  19
546  14
547  22
548  16
549  21
550  27
551  14
552  20
553  20
554  20
555  16
556  19
557  16
558  21
559  16
560  27
561  14
562  14
563  11
564  22
565  16
566  25
567  19
568  22
569  15
570  19
571  14
572  27
573  14
574  16
575  24
576  16
577  30
578  17
579  15
580  22
581  29
582  20
583  13
584  9
585  26
586  18
587  14
588  24
589  14
590  23
591  23
592  18
593  20
594  23
595  19
596  12
597  16
598  24
599  20
600  16
601  18
602  24
603  16
604  14
605  21
606  15
607  20
608  19
609  19
610  23
611  19
612  18
613  24
614  18
615  21
616  19
617  26
618  25
619  18
620  20
621  16
622  20
623  14
624  18
625  21
626  19
627  23
628  18
629  18
630  18
631  27
632  20
633  24
634  18
635  25
636  17
637  21
638  25
639  25
640  15
641  25
642  21
643  25
644  16
645  12
646  27
647  15
648  17
649  24
650  26
651  13
652  16
653  13
654  20
655  17
656  18
657  27
658  18
659  17
660  15
661  18
662  22
663  16
664  23
665  17
666  17
667  17
668  15
669  23
670  25
671  27
672  17
673  19
674  23
675  24
676  23
677  33
678  19
679  15
680  23
681  18
682  25
683  20
684  21
685  17
686  28
687  19
688  18
689  24
690  26
691  19
692  18
693  17
694  18
695  24
696  26
697  21
698  26
699  16
700  21
701  14
702  15
703  27
704  18
705  11
706  16
707  25
708  25
709  15
710  22
711  16
712  20
713  22
714  22
715  15
716  19
717  25
718  22
719  17
720  23
721  24
722  13
723  20
724  20
725  23
726  23
727  23
728  24
729  17
730  18
731  14
732  10
733  26
734  15
735  18
736  20
737  21
738  24
739  31
740  15
741  27
742  28
743  26
744  18
745  12
746  22
747  24
748  29
749  19
750  19
751  23
752  22
753  31
754  24
755  25
756  19
757  18
758  22
759  17
760  23
761  11
762  20
763  14
764  19
765  23
766  26
767  20
768  30
769  19
770  23
771  22
772  24
773  16
774  16
775  16
776  21
777  27
778  21
779  23
780  15
781  26
782  17
783  21
784  23
785  20
786  16
787  14
788  23
789  21
790  17
791  21
792  15
793  20
794  31
795  13
796  23
797  20
798  22
799  18
800  25
801  17
802  15
803  24
804  12
805  11
806  21
807  25
808  18
809  18
810  26
811  24
812  20
813  23
814  24
815  28
816  22
817  20
818  21
819  15
820  15
821  14
822  20
823  24
824  27
825  21
826  30
827  17
828  21
829  26
830  16
831  14
832  17
833  16
834  22
835  18
836  11
837  23
838  23
839  30
840  16
841  22
842  35
843  19
844  19
845  13
846  23
847  19
848  18
849  25
850  22
851  21
852  16
853  18
854  23
855  24
856  16
857  23
858  13
859  25
860  18
861  17
862  15
863  13
864  18
865  24
866  26
867  16
868  18
869  22
870  22
871  16
872  16
873  17
874  22
875  20
876  24
877  27
878  16
879  18
880  17
881  17
882  17
883  22
884  15
885  17
886  16
887  22
888  22
889  28
890  16
891  16
892  26
893  18
894  14
895  19
896  21
897  24
898  29
899  17
900  12
901  22
902  20
903  27
904  24
905  16
906  17
907  29
908  20
909  26
910  18
911  16
912  24
913  27
914  20
915  20
916  22
917  21
918  23
919  19
920  27
921  24
922  15
923  20
924  26
925  15
926  21
927  13
928  16
929  21
930  20
931  19
932  17
933  18
934  29
935  27
936  19
937  30
938  18
939  20
940  16
941  15
942  19
943  15
944  20
945  26
946  24
947  12
948  20
949  17
950  16
951  14
952  19
953  18
954  16
955  30
956  20
957  19
958  18
959  12
960  21
961  15
962  15
963  13
964  19
965  18
966  19
967  23
968  19
969  23
970  19
971  28
972  30
973  17
974  22
975  24
976  26
977  25
978  19
979  21
980  19
981  23
982  18
983  25
984  21
985  18
986  15
987  29
988  30
989  17
990  18
991  19
992  22
993  14
994  18
995  21
996  16
997  32
998  23
999  12
1000  20
1001  13
1002  18
1003  20
1004  26
1005  19
1006  22
1007  21
1008  32
1009  22
1010  22
1011  13
1012  23
1013  17
1014  24
1015  21
1016  21
1017  18
1018  17
1019  23
1020  23
1021  28
1022  23
1023  17
1024  17
1025  14
1026  18
1027  14
1028  15
1029  20
1030  20
1031  24
1032  30
1033  23
1034  22
1035  28
1036  23
1037  26
1038  25
1039  15
1040  20
1041  29
1042  14
1043  15
1044  15
1045  14
1046  20
1047  17
1048  17
1049  13
1050  24
1051  24
1052  24
1053  19
1054  20
1055  24
1056  22
1057  28
1058  23
1059  14
1060  20
1061  23
1062  22
1063  17
1064  24
1065  22
1066  23
1067  15
1068  19
1069  23
1070  16
1071  24
1072  23
1073  21
1074  22
1075  13
1076  18
1077  10
1078  27
1079  25
1080  20
1081  22
1082  18
1083  19
1084  20
1085  23
1086  18
1087  22
1088  26
1089  17
1090  22
1091  20
1092  14
1093  17
1094  16
1095  21
1096  24
1097  15
1098  18
1099  16
1100  32
1101  16
1102  22
1103  21
1104  18
1105  14
1106  19
1107  23
1108  16
1109  21
1110  13
1111  21
1112  12
1113  20
1114  17
1115  21
1116  21
1117  17
1118  22
1119  14
1120  21
1121  16
1122  18
1123  30
1124  24
1125  22
1126  18
1127  19
1128  18
1129  14
1130  17
1131  27
1132  16
1133  20
1134  22
1135  20
1136  23
1137  23
1138  16
1139  24
1140  19
1141  27
1142  18
1143  19
1144  21
1145  18
1146  20
1147  17
1148  17
1149  21
1150  18
1151  20
1152  14
1153  18
1154  31
1155  30
1156  22
1157  19
1158  21
1159  16
1160  23
1161  21
1162  22
1163  26
1164  27
1165  32
1166  25
1167  25
1168  20
1169  23
1170  21
1171  22
1172  22
1173  21
1174  27
1175  13
1176  15
1177  26
1178  20
1179  21
1180  14
1181  16
1182  24
1183  18
1184  18
1185  23
1186  24
1187  25
1188  22
1189  18
1190  10
1191  18
1192  26
1193  13
1194  26
1195  27
1196  21
1197  22
1198  27
1199  13
1200  23
1201  28
1202  27
1203  21
1204  18
1205  21
1206  13
1207  18
1208  23
1209  17
1210  19
1211  12
1212  25
1213  18
1214  20
1215  17
1216  22
1217  26
1218  19
1219  20
1220  21
1221  28
1222  23
1223  16
1224  18
1225  17
1226  21
1227  13
1228  18
1229  27
1230  22
1231  26
1232  24
1233  20
1234  24
1235  22
1236  24
1237  21
1238  19
1239  26
1240  14
1241  25
1242  18
1243  23
1244  24
1245  26
1246  23
1247  30
1248  26
1249  22
1250  26
1251  28
1252  17
1253  23
1254  16
1255  23
1256  22
1257  19
1258  17
1259  21
1260  20
1261  22
1262  28
1263  22
1264  24
1265  16
1266  23
1267  16
1268  20
1269  26
1270  24
1271  23
1272  17
1273  26
1274  21
1275  11
1276  19
1277  21
1278  17
1279  25
1280  23
1281  25
1282  22
1283  17
1284  18
1285  34
1286  19
1287  23
1288  23
1289  24
1290  37
1291  26
1292  17
1293  29
1294  28
1295  26
1296  23
1297  14
1298  28
1299  22
1300  22
1301  21
1302  23
1303  21
1304  18
1305  27
1306  21
1307  26
1308  23
1309  24
1310  24
1311  23
1312  17
1313  28
1314  19
1315  16
1316  19
1317  19
1318  22
1319  24
1320  23
1321  24
1322  21
1323  20
1324  23
1325  21
1326  27
1327  25
1328  27
1329  22
1330  15
1331  22
1332  24
1333  20
1334  19
1335  22
1336  23
1337  25
1338  9
1339  14
1340  25
1341  25
1342  16
1343  27
1344  22
1345  22
1346  25
1347  14
1348  23
1349  20
1350  21
1351  16
1352  22
1353  21
1354  25
1355  29
1356  19
1357  16
1358  14
1359  23
1360  32
1361  15
1362  21
1363  29
1364  18
1365  21
1366  17
1367  24
1368  15
1369  21
1370  22
1371  23
1372  21
1373  26
1374  21
1375  19
1376  18
1377  21
1378  17
1379  20
1380  21
1381  39
1382  26
1383  15
1384  16
1385  29
1386  28
1387  17
1388  13
1389  19
1390  15
1391  20
1392  20
1393  25
1394  21
1395  22
1396  15
1397  13
1398  19
1399  10
1400  22
1401  16
1402  21
1403  22
1404  16
1405  26
1406  22
1407  18
1408  16
1409  25
1410  15
1411  16
1412  23
1413  26
1414  17
1415  28
1416  27
1417  26
1418  25
1419  17
1420  21
1421  22
1422  17
1423  15
1424  20
1425  15
1426  14
1427  24
1428  14
1429  15
1430  19
1431  25
1432  20
1433  17
1434  20
1435  19
1436  22
1437  15
1438  22
1439  20
1440  20
1441  20
1442  28
1443  32
1444  20
1445  23
1446  14
1447  19
1448  21
1449  28
1450  18
1451  24
1452  18
1453  15
1454  23
1455  21
1456  16
1457  25
1458  24
1459  14
1460  28
1461  24
1462  20
1463  25
1464  22
1465  14
1466  17
1467  17
1468  15
1469  24
1470  17
1471  20
1472  26
1473  23
1474  22
1475  21
1476  14
1477  15
1478  26
1479  18
1480  22
1481  14
1482  22
1483  21
1484  18
1485  22
1486  16
1487  20
1488  17
1489  28
1490  26
1491  17
1492  17
1493  24
1494  20
1495  27
1496  20
1497  16
1498  22
1499  16
1500  12
1501  30
1502  21
1503  17
1504  22
1505  20
1506  16
1507  22
1508  27
1509  21
1510  28
1511  22
1512  23
1513  24
1514  17
1515  20
1516  27
1517  25
1518  20
1519  15
1520  25
1521  26
1522  24
1523  19
1524  21
1525  18
1526  15
1527  18
1528  20
1529  19
1530  21
1531  29
1532  10
1533  23
1534  24
1535  20
1536  23
1537  14
1538  16
1539  20
1540  25
1541  21
1542  20
1543  21
1544  21
1545  32
1546  18
1547  16
1548  18
1549  26
1550  29
1551  22
1552  20
1553  23
1554  27
1555  27
1556  22
1557  15
1558  22
1559  23
1560  20
1561  23
1562  24
1563  20
1564  25
1565  15
1566  14
1567  27
1568  16
1569  17
1570  22
1571  25
1572  22
1573  27
1574  18
1575  20
1576  15
1577  19
1578  14
1579  18
1580  22
1581  23
1582  17
1583  19
1584  19
1585  21
1586  23
1587  17
1588  24
1589  19
1590  19
1591  23
1592  22
1593  23
1594  28
1595  23
1596  24
1597  26
1598  22
1599  27
1600  32
1601  21
1602  27
1603  24
1604  21
1605  23
1606  16
1607  21
1608  17
1609  24
1610  11
1611  16
1612  25
1613  24
1614  18
1615  31
1616  24
1617  27
1618  19
1619  23
1620  23
1621  20
1622  21
1623  21
1624  16
1625  24
1626  14
1627  14
1628  24
1629  22
1630  22
1631  16
1632  21
1633  23
1634  22
1635  16
1636  21
1637  22
1638  16
1639  19
1640  24
1641  29
1642  17
1643  30
1644  19
1645  19
1646  18
1647  24
1648  20
1649  17
1650  13
1651  16
1652  22
1653  19
1654  12
1655  15
1656  25
1657  19
1658  23
1659  20
1660  22
1661  21
1662  18
1663  18
1664  22
1665  28
1666  12
1667  18
1668  13
1669  24
1670  17
1671  24
1672  18
1673  27
1674  18
1675  22
1676  26
1677  22
1678  17
1679  20
1680  25
1681  22
1682  25
1683  22
1684  17
1685  17
1686  22
1687  19
1688  25
1689  21
1690  13
1691  16
1692  31
1693  20
1694  17
1695  22
1696  17
1697  21
1698  18
1699  28
1700  27
1701  27
1702  23
1703  20
1704  25
1705  23
1706  20
1707  12
1708  18
1709  25
1710  23
1711  32
1712  21
1713  23
1714  23
1715  21
1716  24
1717  16
1718  23
1719  21
1720  26
1721  17
1722  23
1723  17
1724  23
1725  23
1726  19
1727  22
1728  26
1729  18
1730  20
1731  34
1732  21
1733  20
1734  18
1735  15
1736  21
1737  24
1738  15
1739  28
1740  26
1741  22
1742  25
1743  11
1744  23
1745  19
1746  30
1747  26
1748  18
1749  25
1750  27
1751  20
1752  16
1753  12
1754  17
1755  12
1756  16
1757  14
1758  25
1759  25
1760  25
1761  18
1762  25
1763  17
1764  23
1765  23
1766  27
1767  18
1768  28
1769  22
1770  23
1771  10
1772  29
1773  28
1774  17
1775  19
1776  26
1777  18
1778  19
1779  15
1780  20
1781  9
1782  21
1783  21
1784  25
1785  29
1786  20
1787  15
1788  20
1789  27
1790  22
1791  22
1792  22
1793  28
1794  19
1795  20
1796  24
1797  29
1798  13
1799  26
1800  27
1801  19
1802  18
1803  15
1804  14
1805  18
1806  24
1807  22
1808  27
1809  28
1810  15
1811  15
1812  29
1813  28
1814  21
1815  20
1816  25
1817  19
1818  28
1819  21
1820  19
1821  12
1822  26
1823  14
1824  25
1825  26
1826  19
1827  28
1828  21
1829  33
1830  25
1831  23
1832  18
1833  15
1834  21
1835  20
1836  20
1837  16
1838  15
1839  15
1840  31
1841  17
1842  22
1843  19
1844  22
1845  25
1846  29
1847  17
1848  19
1849  29
1850  24
1851  21
1852  32
1853  24
1854  21
1855  20
1856  16
1857  24
1858  22
1859  17
1860  25
1861  12
1862  29
1863  20
1864  24
1865  27
1866  22
1867  22
1868  18
1869  25
1870  33
1871  14
1872  19
1873  26
1874  29
1875  36
1876  24
1877  29
1878  19
1879  26
1880  23
1881  31
1882  25
1883  29
1884  20
1885  25
1886  31
1887  29
1888  23
1889  33
1890  32
1891  33
1892  20
1893  27
1894  39
1895  27
1896  42
1897  30
1898  37
1899  38
1900  35
1901  42
1902  34
1903  38
1904  48
1905  35
1906  45
1907  45
1908  35
1909  50
1910  36
1911  52
1912  40
1913  37
1914  47
1915  65
1916  45
1917  49
1918  52
1919  47
1920  65
1921  58
1922  65
1923  73
1924  76
1925  87
1926  77
1927  60
1928  99
1929  87
1930  91
1931  94
1932  122
1933  88
1934  111
1935  118
1936  135
1937  142
1938  130
1939  143
1940  147
1941  154
1942  173
1943  162
1944  157
1945  171
1946  182
1947  204
1948  198
1949  197
1950  204
1951  204
1952  212
1953  210
1954  223
1955  225
1956  232
1957  257
1958  253
1959  247
1960  267
1961  267
1962  269
1963  238
1964  272
1965  274
1966  273
1967  287
1968  278
1969  299
1970  314
1971  295
1972  285
1973  287
1974  315
1975  275
1976  301
1977  246
1978  253
1979  265
1980  229
1981  269
1982  218
1983  235
1984  217
1985  214
1986  192
1987  172
1988  166
1989  170
1990  155
1991  140
1992  140
1993  116
1994  118
1995  91
1996  84
1997  87
1998  66
1999  64
2000  55
2001  55
2002  52
2003  54
2004  58
2005  59
2006  50
2007  59
2008  48
2009  45
2010  44
2011  41
2012  45
2013  42
2014  49
2015  38
2016  43
2017  38
2018  38
2019  24
2020  36
2021  33
2022  42
2023  41
2024  33
2025  22
2026  28
2027  29
2028  43
2029  25
2030  42
2031  28
2032  30
2033  37
2034  23
2035  45
2036  26
2037  36
2038  41
2039  22
2040  32
2041  30
2042  24
2043  22
2044  43
2045  29
2046  29
2047  36
2048  33
2049  22
2050  43
2051  36
2052  25
2053  32
2054  36
2055  34
2056  33
2057  27
2058  35
2059  26
2060  34
2061  32
2062  40
2063  25
2064  27
2065  25
2066  33
2067  30
2068  32
2069  40
2070  30
2071  18
2072  35
2073  27
2074  39
2075  32
2076  21
2077  33
2078  32
2079  37
2080  22
2081  25
2082  23
2083  28
2084  29
2085  26
2086  30
2087  16
2088  29
2089  36
2090  26
2091  35
2092  24
2093  40
2094  26
2095  21
2096  35
2097  30
2098  27
2099  23
2100  23
2101  31
2102  25
2103  28
2104  22
2105  20
2106  20
2107  23
2108  15
2109  18
2110  25
2111  27
2112  23
2113  25
2114  28
2115  23
2116  27
2117  27
2118  21
2119  20
2120  14
2121  17
2122  26
2123  28
2124  27
2125  25
2126  17
2127  17
2128  31
2129  27
2130  20
2131  20
2132  22
2133  21
2134  15
2135  14
2136  15
2137  22
2138  22
2139  16
2140  26
2141  12
2142  28
2143  15
2144  19
2145  22
2146  19
2147  25
2148  23
2149  16
2150  17
2151  16
2152  17
2153  28
2154  18
2155  17
2156  22
2157  25
2158  27
2159  19
2160  20
2161  24
2162  16
2163  19
2164  27
2165  17
2166  20
2167  25
2168  20
2169  26
2170  22
2171  21
2172  21
2173  18
2174  16
2175  21
2176  19
2177  19
2178  22
2179  23
2180  20
2181  22
2182  14
2183  19
2184  18
2185  23
2186  22
2187  31
2188  28
2189  27
2190  25
2191  19
2192  21
2193  18
2194  15
2195  21
2196  21
2197  33
2198  25
2199  18
2200  19
2201  25
2202  23
2203  18
2204  23
2205  22
2206  28
2207  19
2208  18
2209  17
2210  19
2211  18
2212  17
2213  21
2214  20
2215  13
2216  16
2217  17
2218  25
2219  16
2220  22
2221  19
2222  24
2223  13
2224  18
2225  17
2226  32
2227  21
2228  20
2229  27
2230  18
2231  17
2232  19
2233  19
2234  21
2235  30
2236  24
2237  23
2238  26
2239  14
2240  13
2241  20
2242  17
2243  20
2244  17
2245  27
2246  21
2247  12
2248  21
2249  25
2250  20
2251  17
2252  18
2253  13
2254  24
2255  17
2256  26
2257  19
2258  17
2259  20
2260  23
2261  17
2262  17
2263  13
2264  17
2265  11
2266  20
2267  15
2268  25
2269  23
2270  23
2271  18
2272  16
2273  22
2274  15
2275  24
2276  25
2277  25
2278  16
2279  26
2280  15
2281  21
2282  27
2283  25
2284  17
2285  25
2286  22
2287  23
2288  27
2289  11
2290  30
2291  22
2292  13
2293  18
2294  20
2295  14
2296  29
2297  22
2298  17
2299  23
2300  17
2301  22
2302  22
2303  18
2304  18
2305  18
2306  20
2307  15
2308  22
2309  21
2310  18
2311  15
2312  25
2313  18
2314  20
2315  13
2316  18
2317  24
2318  19
2319  9
2320  22
2321  16
2322  26
2323  20
2324  24
2325  20
2326  24
2327  20
2328  21
2329  14
2330  22
2331  16
2332  16
2333  27
2334  14
2335  19
2336  25
2337  25
2338  25
2339  24
2340  23
2341  17
2342  19
2343  20
2344  23
2345  19
2346  17
2347  17
2348  22
2349  16
2350  25
2351  26
2352  17
2353  19
2354  19
2355  24
2356  24
2357  21
2358  17
2359  23
2360  24
2361  11
2362  22
2363  19
2364  16
2365  20
2366  22
2367  13
2368  19
2369  19
2370  27
2371  30
2372  9
2373  17
2374  21
2375  26
2376  18
2377  21
2378  21
2379  20
2380  22
2381  22
2382  26
2383  22
2384  25
2385  14
2386  26
2387  18
2388  34
2389  20
2390  21
2391  19
2392  24
2393  25
2394  22
2395  25
2396  20
2397  18
2398  14
2399  16
2400  26
2401  23
2402  18
2403  24
2404  19
2405  27
2406  15
2407  18
2408  17
2409  17
2410  28
2411  21
2412  21
2413  13
2414  20
2415  14
2416  23
2417  21
2418  24
2419  17
2420  22
2421  18
2422  11
2423  22
2424  19
2425  21
2426  15
2427  23
2428  19
2429  16
2430  22
2431  16
2432  22
2433  22
2434  18
2435  20
2436  21
2437  23
2438  18
2439  19
2440  20
2441  16
2442  30
2443  20
2444  23
2445  29
2446  18
2447  31
2448  19
2449  23
2450  21
2451  17
2452  20
2453  18
2454  18
2455  19
2456  26
2457  12
2458  16
2459  23
2460  16
2461  24
2462  30
2463  17
2464  23
2465  16
2466  26
2467  22
2468  17
2469  21
2470  19
2471  20
2472  12
2473  15
2474  13
2475  27
2476  19
2477  10
2478  22
2479  14
2480  15
2481  16
2482  17
2483  15
2484  22
2485  16
2486  23
2487  11
2488  20
2489  21
2490  16
2491  19
2492  23
2493  18
2494  19
2495  18
2496  20
2497  31
2498  16
2499  13
2500  13
2501  22
2502  19
2503  22
2504  21
2505  19
2506  17
2507  32
2508  25
2509  22
2510  26
2511  17
2512  22
2513  16
2514  16
2515  18
2516  30
2517  19
2518  23
2519  21
2520  22
2521  19
2522  15
2523  19
2524  15
2525  20
2526  25
2527  19
2528  22
2529  17
2530  19
2531  22
2532  21
2533  19
2534  17
2535  24
2536  27
2537  25
2538  17
2539  19
2540  19
2541  19
2542  20
2543  21
2544  18
2545  21
2546  23
2547  19
2548  17
2549  14
2550  16
2551  15
2552  21
2553  14
2554  14
2555  18
2556  19
2557  21
2558  18
2559  18
2560  28
2561  18
2562  24
2563  20
2564  22
2565  23
2566  24
2567  22
2568  21
2569  20
2570  14
2571  16
2572  18
2573  29
2574  28
2575  20
2576  32
2577  20
2578  27
2579  26
2580  19
2581  19
2582  23
2583  19
2584  21
2585  21
2586  21
2587  25
2588  20
2589  22
2590  15
2591  18
2592  20
2593  20
2594  19
2595  22
2596  16
2597  22
2598  19
2599  22
2600  21
2601  19
2602  15
2603  21
2604  16
2605  27
2606  17
2607  13
2608  16
2609  17
2610  21
2611  26
2612  16
2613  22
2614  25
2615  23
2616  17
2617  21
2618  24
2619  23
2620  21
2621  17
2622  24
2623  20
2624  10
2625  21
2626  20
2627  23
2628  17
2629  25
2630  28
2631  20
2632  19
2633  19
2634  19
2635  21
2636  22
2637  24
2638  19
2639  17
2640  26
2641  22
2642  13
2643  21
2644  22
2645  27
2646  21
2647  20
2648  14
2649  13
2650  15
2651  16
2652  14
2653  17
2654  19
2655  22
2656  20
2657  23
2658  23
2659  23
2660  23
2661  22
2662  20
2663  24
2664  24
2665  21
2666  17
2667  22
2668  16
2669  21
2670  29
2671  14
2672  16
2673  15
2674  24
2675  22
2676  17
2677  19
2678  31
2679  17
2680  16
2681  20
2682  18
2683  21
2684  21
2685  12
2686  20
2687  22
2688  14
2689  16
2690  14
2691  22
2692  24
2693  17
2694  29
2695  15
2696  19
2697  21
2698  21
2699  23
2700  20
2701  22
2702  22
2703  15
2704  15
2705  14
2706  14
2707  29
2708  16
2709  19
2710  19
2711  29
2712  16
2713  15
2714  18
2715  30
2716  21
2717  21
2718  29
2719  16
2720  13
2721  14
2722  22
2723  23
2724  22
2725  14
2726  11
2727  12
2728  20
2729  11
2730  18
2731  14
2732  18
2733  20
2734  20
2735  22
2736  20
2737  19
2738  27
2739  16
2740  15
2741  20
2742  20
2743  15
2744  15
2745  23
2746  14
2747  21
2748  19
2749  14
2750  12
2751  24
2752  17
2753  20
2754  23
2755  20
2756  20
2757  14
2758  19
2759  21
2760  22
2761  19
2762  22
2763  24
2764  13
2765  16
2766  16
2767  14
2768  23
2769  21
2770  19
2771  20
2772  28
2773  12
2774  21
2775  16
2776  19
2777  24
2778  9
2779  14
2780  21
2781  18
2782  27
2783  16
2784  11
2785  22
2786  23
2787  21
2788  12
2789  20
2790  20
2791  16
2792  12
2793  24
2794  23
2795  22
2796  21
2797  15
2798  17
2799  24
2800  18
2801  18
2802  27
2803  20
2804  22
2805  25
2806  19
2807  15
2808  15
2809  20
2810  16
2811  24
2812  20
2813  21
2814  19
2815  20
2816  11
2817  23
2818  18
2819  14
2820  20
2821  30
2822  13
2823  15
2824  16
2825  19
2826  21
2827  18
2828  18
2829  18
2830  15
2831  16
2832  21
2833  22
2834  13
2835  17
2836  22
2837  17
2838  24
2839  22
2840  15
2841  21
2842  26
2843  12
2844  14
2845  15
2846  19
2847  25
2848  26
2849  26
2850  13
2851  25
2852  14
2853  24
2854  21
2855  22
2856  21
2857  23
2858  23
2859  13
2860  23
2861  25
2862  25
2863  19
2864  16
2865  24
2866  18
2867  21
2868  18
2869  17
2870  23
2871  27
2872  17
2873  13
2874  20
2875  19
2876  21
2877  21
2878  20
2879  24
2880  19
2881  29
2882  19
2883  23
2884  24
2885  22
2886  18
2887  25
2888  14
2889  23
2890  23
2891  31
2892  18
2893  20
2894  14
2895  19
2896  16
2897  18
2898  25
2899  14
2900  20
2901  26
2902  19
2903  20
2904  22
2905  17
2906  19
2907  21
2908  24
2909  26
2910  26
2911  32
2912  36
2913  24
2914  18
2915  36
2916  32
2917  55
2918  36
2919  40
2920  32
2921  53
2922  42
2923  54
2924  30
2925  58
2926  47
2927  48
2928  61
2929  35
2930  60
2931  45
2932  46
2933  36
2934  39
2935  39
2936  39
2937  41
2938  31
2939  35
2940  31
2941  35
2942  23
2943  31
2944  45
2945  23
2946  35
2947  23
2948  20
2949  25
2950  21
2951  32
2952  25
2953  24
2954  23
2955  14
2956  27
2957  32
2958  22
2959  16
2960  21
2961  21
2962  19
2963  25
2964  25
2965  26
2966  11
2967  22
2968  24
2969  24
2970  22
2971  29
2972  27
2973  18
2974  19
2975  22
2976  17
2977  19
2978  21
2979  25
2980  33
2981  23
2982  25
2983  21
2984  21
2985  18
2986  16
2987  20
2988  15
2989  18
2990  31
2991  27
2992  23
2993  17
2994  32
2995  31
2996  31
2997  19
2998  15
2999  18
3000  15
3001  21
3002  26
3003  26
3004  15
3005  23
3006  19
3007  13
3008  23
3009  24
3010  15
3011  22
3012  17
3013  16
3014  21
3015  21
3016  21
3017  21
3018  24
3019  21
3020  17
3021  26
3022  25
3023  34
3024  20
3025  22
3026  34
3027  26
3028  33
3029  24
3030  23
3031  25
3032  25
3033  22
3034  30
3035  25
3036  22
3037  19
3038  27
3039  24
3040  21
3041  26
3042  20
3043  19
3044  15
3045  18
3046  18
3047  30
3048  19
3049  14
3050  24
3051  18
3052  22
3053  22
3054  18
3055  21
3056  21
3057  11
3058  18
3059  24
3060  18
3061  18
3062  13
3063  22
3064  18
3065  37
3066  23
3067  17
3068  17
3069  16
3070  13
3071  14
3072  25
3073  19
3074  26
3075  17
3076  21
3077  26
3078  14
3079  22
3080  12
3081  23
3082  25
3083  22
3084  23
3085  22
3086  8
3087  24
3088  17
3089  22
3090  24
3091  17
3092  26
3093  23
3094  14
3095  20
3096  23
3097  19
3098  19
3099  25
3100  18
3101  23
3102  25
3103  18
3104  17
3105  22
3106  12
3107  20
3108  14
3109  19
3110  19
3111  16
3112  25
3113  15
3114  20
3115  14
3116  21
3117  17
3118  21
3119  23
3120  19
3121  27
3122  22
3123  18
3124  16
3125  27
3126  22
3127  24
3128  19
3129  22
3130  21
3131  18
3132  17
3133  17
3134  31
3135  21
3136  14
3137  16
3138  20
3139  14
3140  16
3141  22
3142  24
3143  22
3144  16
3145  14
3146  25
3147  18
3148  26
3149  23
3150  23
3151  11
3152  21
3153  22
3154  19
3155  18
3156  19
3157  22
3158  26
3159  24
3160  18
3161  17
3162  20
3163  25
3164  20
3165  26
3166  26
3167  21
3168  22
3169  19
3170  21
3171  26
3172  16
3173  19
3174  26
3175  27
3176  31
3177  14
3178  28
3179  17
3180  29
3181  22
3182  16
3183  16
3184  26
3185  18
3186  13
3187  18
3188  22
3189  21
3190  14
3191  22
3192  14
3193  17
3194  27
3195  26
3196  25
3197  29
3198  17
3199  17
3200  26
3201  21
3202  22
3203  16
3204  18
3205  11
3206  29
3207  27
3208  16
3209  21
3210  23
3211  19
3212  25
3213  18
3214  24
3215  23
3216  20
3217  16
3218  23
3219  21
3220  19
3221  17
3222  26
3223  13
3224  22
3225  18
3226  23
3227  19
3228  19
3229  31
3230  29
3231  16
3232  22
3233  19
3234  21
3235  23
3236  19
3237  31
3238  18
3239  15
3240  18
3241  17
3242  24
3243  22
3244  20
3245  18
3246  26
3247  25
3248  29
3249  16
3250  23
3251  16
3252  15
3253  15
3254  24
3255  13
3256  22
3257  21
3258  15
3259  26
3260  18
3261  22
3262  17
3263  17
3264  23
3265  21
3266  25
3267  21
3268  16
3269  8
3270  18
3271  25
3272  12
3273  15
3274  17
3275  22
3276  22
3277  19
3278  19
3279  21
3280  22
3281  30
3282  16
3283  17
3284  17
3285  17
3286  16
3287  24
3288  21
3289  18
3290  18
3291  16
3292  23
3293  22
3294  18
3295  29
3296  17
3297  18
3298  19
3299  24
3300  24
3301  27
3302  18
3303  11
3304  22
3305  13
3306  24
3307  22
3308  21
3309  19
3310  22
3311  21
3312  21
3313  25
3314  17
3315  30
3316  15
3317  21
3318  20
3319  18
3320  27
3321  12
3322  22
3323  12
3324  21
3325  18
3326  16
3327  19
3328  12
3329  15
3330  18
3331  18
3332  22
3333  17
3334  21
3335  20
3336  20
3337  22
3338  22
3339  16
3340  10
3341  20
3342  27
3343  14
3344  26
3345  29
3346  27
3347  18
3348  23
3349  23
3350  16
3351  18
3352  14
3353  34
3354  17
3355  27
3356  23
3357  20
3358  16
3359  19
3360  21
3361  27
3362  25
3363  20
3364  23
3365  17
3366  19
3367  21
3368  17
3369  15
3370  16
3371  21
3372  18
3373  29
3374  12
3375  28
3376  25
3377  14
3378  23
3379  11
3380  13
3381  21
3382  18
3383  19
3384  15
3385  27
3386  17
3387  25
3388  18
3389  29
3390  16
3391  29
3392  26
3393  21
3394  13
3395  13
3396  27
3397  18
3398  17
3399  18
3400  19
3401  24
3402  24
3403  20
3404  31
3405  25
3406  22
3407  14
3408  30
3409  14
3410  16
3411  21
3412  13
3413  15
3414  7
3415  14
3416  12
3417  12
3418  12
3419  6
3420  12
3421  7
3422  7
3423  3
3424  1
3425  4
3426  1
3427  1
3428  0
3429  0
3430  0
3431  0
3432  0
3433  0
3434  0
3435  0
3436  0
3437  0
3438  0
3439  0
3440  0
3441  0
3442  0
3443  0
3444  0
3445  0
3446  0
3447  0
3448  0
3449  0
3450  0
3451  0
3452  0
3453  0
3454  0
3455  0
3456  0
3457  0
3458  0
3459  0
3460  0
3461  0
3462  0
3463  0
3464  0
3465  0
3466  0
3467  0
3468  0
3469  0
3470  0
3471  0
3472  0
3473  0
3474  0
3475  0
3476  0
3477  0
3478  0
3479  0
3480  0
3481  0
3482  0
3483  0
3484  0
3485  0
3486  0
3487  0
3488  0
3489  0
3490  0
3491  0
3492  0
3493  0
3494  0
3495  0
3496  0
3497  0
3498  0
3499  0
3500  0
3501  0
3502  0
3503  0
3504  0
3505  0
3506  0
3507  0
3508  0
3509  0
3510  0
3511  0
3512  0
3513  0
3514  0
3515  0
3516  0
3517  0
3518  0
3519  0
3520  0
3521  0
3522  0
3523  0
3524  0
3525  0
3526  0
3527  0
3528  0
3529  0
3530  0
3531  0
3532  0
3533  0
3534  0
3535  0
3536  0
3537  0
3538  0
3539  0
3540  0
3541  0
3542  0
3543  0
3544  0
3545  0
3546  0
3547  0
3548  0
3549  0
3550  0
3551  0
3552  0
3553  0
3554  0
3555  0
3556  0
3557  0
3558  0
3559  0
3560  0
3561  0
3562  0
3563  0
3564  0
3565  0
3566  0
3567  0
3568  0
3569  0
3570  0
3571  0
3572  0
3573  0
3574  0
3575  0
3576  0
3577  0
3578  0
3579  0
3580  0
3581  0
3582  0
3583  0
3584  0
3585  0
3586  0
3587  0
3588  0
3589  0
3590  0
3591  0
3592  0
3593  0
3594  0
3595  0
3596  0
3597  0
3598  0
3599  0
3600  0
3601  0
3602  0
3603  0
3604  0
3605  0
3606  0
3607  0
3608  0
3609  0
3610  0
3611  0
3612  0
3613  0
3614  0
3615  0
3616  0
3617  0
3618  0
3619  0
3620  0
3621  0
3622  0
3623  0
3624  0
3625  0
3626  0
3627  0
3628  0
3629  0
3630  0
3631  0
3632  0
3633  0
3634  0
3635  0
3636  0
3637  0
3638  0
3639  0
3640  0
3641  0
3642  0
3643  0
3644  0
3645  0
3646  0
3647  0
3648  0
3649  0
3650  0
3651  0
3652  0
3653  0
3654  0
3655  0
3656  0
3657  0
3658  0
3659  0
3660  0
3661  0
3662  0
3663  0
3664  0
3665  0
3666  0
3667  0
3668  0
3669  0
3670  0
3671  0
3672  0
3673  0
3674  0
3675  0
3676  0
3677  0
3678  0
3679  0
3680  0
3681  0
3682  0
3683  0
3684  0
3685  0
3686  0
3687  0
3688  0
3689  0
3690  0
3691  0
3692  0
3693  0
3694  0
3695  0
3696  0
3697  0
3698  0
3699  0
3700  0
3701  0
3702  0
3703  0
3704  0
3705  0
3706  0
3707  0
3708  0
3709  0
3710  0
3711  0
3712  0
3713  0
3714  0
3715  0
3716  0
3717  0
3718  0
3719  0
3720  0
3721  0
3722  1
3723  0
3724  0
3725  0
3726  0
3727  0
3728  0
3729  0
3730  0
3731  0
3732  0
3733  0
3734  0
3735  0
3736  0
3737  0
3738  0
3739  0
3740  0
3741  0
3742  0
3743  0
3744  0
3745  0
3746  0
3747  0
3748  0
3749  0
3750  0
3751  0
3752  0
3753  0
3754  0
3755  0
3756  0
3757  0
3758  0
3759  0
3760  0
3761  0
3762  0
3763  0
3764  0
3765  0
3766  0
3767  0
3768  0
3769  0
3770  0
3771  0
3772  0
3773  0
3774  0
3775  0
3776  0
3777  0
3778  0
3779  0
3780  0
3781  0
3782  0
3783  0
3784  0
3785  0
3786  0
3787  0
3788  0
3789  0
3790  0
3791  0
3792  0
3793  0
3794  0
3795  0
3796  0
3797  0
3798  0
3799  0
3800  0
3801  0
3802  0
3803  0
3804  0
3805  0
3806  0
3807  0
3808  0
3809  0
3810  0
3811  0
3812  0
3813  0
3814  0
3815  0
3816  0
3817  0
3818  0
3819  0
3820  0
3821  0
3822  0
3823  0
3824  0
3825  0
3826  0
3827  0
3828  0
3829  0
3830  0
3831  0
3832  0
3833  0
3834  0
3835  0
3836  0
3837  0
3838  0
3839  0
3840  0
3841  0
3842  0
3843  0
3844  0
3845  0
3846  0
3847  0
3848  0
3849  0
3850  0
3851  0
3852  0
3853  0
3854  0
3855  0
3856  0
3857  0
3858  0
3859  0
3860  0
3861  0
3862  0
3863  0
3864  0
3865  0
3866  0
3867  0
3868  0
3869  0
3870  0
3871  0
3872  0
3873  0
3874  0
3875  0
3876  0
3877  0
3878  0
3879  0
3880  0
3881  0
3882  0
3883  0
3884  0
3885  0
3886  0
3887  0
3888  0
3889  0
3890  0
3891  0
3892  0
3893  0
3894  0
3895  0
3896  0
3897  0
3898  0
3899  0
3900  0
3901  0
3902  0
3903  0
3904  0
3905  0
3906  0
3907  0
3908  0
3909  0
3910  0
3911  0
3912  0
3913  0
3914  0
3915  0
3916  0
3917  0
3918  0
3919  0
3920  0
3921  0
3922  0
3923  0
3924  0
3925  0
3926  0
3927  0
3928  0
3929  0
3930  0
3931  0
3932  0
3933  0
3934  0
3935  0
3936  0
3937  0
3938  0
3939  0
3940  0
3941  0
3942  0
3943  0
3944  0
3945  0
3946  0
3947  0
3948  0
3949  0
3950  0
3951  0
3952  0
3953  0
3954  0
3955  0
3956  0
3957  0
3958  0
3959  0
3960  0
3961  0
3962  0
3963  0
3964  0
3965  0
3966  0
3967  0
3968  0
3969  0
3970  0
3971  0
3972  0
3973  0
3974  0
3975  0
3976  0
3977  0
3978  0
3979  0
3980  0
3981  0
3982  0
3983  0
3984  0
3985  0
3986  0
3987  0
3988  0
3989  0
3990  0
3991  0
3992  0
3993  0
3994  0
3995  0
3996  0
3997  0
3998  0
3999  0
4000  0
4001  0
4002  0
4003  0
4004  0
4005  0
4006  0
4007  0
4008  0
4009  0
4010  0
4011  0
4012  0
4013  0
4014  0
4015  0
4016  0
4017  0
4018  0
4019  0
4020  0
4021  0
4022  0
4023  0
4024  0
4025  0
4026  0
4027  0
4028  0
4029  0
4030  0
4031  0
4032  0
4033  0
4034  0
4035  0
4036  0
4037  0
4038  0
4039  0
4040  0
4041  0
4042  0
4043  0
4044  0
4045  0
4046  0
4047  0
4048  0
4049  0
4050  0
4051  0
4052  0
4053  0
4054  0
4055  0
4056  0
4057  0
4058  0
4059  0
4060  0
4061  0
4062  0
4063  0
4064  0
4065  0
4066  0
4067  0
4068  0
4069  0
4070  0
4071  0
4072  0
4073  0
4074  0
4075  0
4076  0
4077  0
4078  0
4079  0
4080  0
4081  0
4082  0
4083  0
4084  0
4085  0
4086  0
4087  0
4088  0
4089  0
4090  0
4091  0
4092  0
4093  0
4094  0
4095  0
