0  0
1  0
2  0
3  0
4  0
5  0
6  1
7  2
8  0
9  1
10  1
11  1
12  2
13  2
14  4
15  58
16  870
17  5710
18  14837
19  18859
20  14371
21  8797
22  6930
23  6740
24  7270
25  7117
26  7083
27  6913
28  6881
29  6913
30  6773
31  6970
32  6678
33  6465
34  6689
35  6564
36  6694
37  6608
38  6408
39  6241
40  5919
41  4941
42  3643
43  2560
44  1851
45  1318
46  772
47  381
48  215
49  115
50  83
51  67
52  39
53  21
54  32
55  12
56  11
57  4
58  5
59  8
60  4
61  1
62  0
63  0
64  4
65  3
66  1
67  1
68  0
69  0
70  0
71  1
72  0
73  0
74  0
75  1
76  0
77  0
78  1
79  0
80  0
81  0
82  0
83  0
84  0
85  0
86  0
87  1
88  0
89  0
90  0
91  0
92  0
93  0
94  1
95  0
96  0
97  0
98  0
99  0
100  0
101  0
102  0
103  0
104  0
105  0
106  0
107  1
108  0
109  1
110  1
111  0
112  0
113  0
114  1
115  0
116  0
117  0
118  0
119  0
120  0
121  0
122  0
123  0
124  0
125  0
126  1
127  0
128  2
129  0
130  0
131  0
132  0
133  0
134  0
135  0
136  0
137  0
138  2
139  0
140  0
141  0
142  0
143  1
144  0
145  0
146  0
147  0
148  0
149  1
150  0
151  0
152  0
153  2
154  0
155  0
156  0
157  0
158  0
159  0
160  0
161  1
162  0
163  0
164  0
165  0
166  0
167  0
168  0
169  0
170  0
171  0
172  0
173  1
174  0
175  0
176  0
177  0
178  0
179  16
180  252
181  1774
182  5346
183  8860
184  10791
185  15648
186  28527
187  40871
188  41142
189  31487
190  20871
191  14471
192  10912
193  9262
194  8071
195  7052
196  6444
197  6104
198  5508
199  5421
200  5140
201  5048
202  4867
203  4897
204  4752
205  4612
206  4684
207  4594
208  4509
209  4519
210  4514
211  4503
212  4471
213  4496
214  4453
215  4378
216  4380
217  4358
218  4434
219  4412
220  4370
221  4373
222  4252
223  4278
224  4322
225  4399
226  4337
227  4222
228  4323
229  4355
230  4274
231  4265
232  4160
233  4222
234  4400
235  4173
236  4263
237  4290
238  4096
239  4278
240  4251
241  4282
242  4389
243  4291
244  4259
245  4320
246  4363
247  4245
248  4245
249  4321
250  4437
251  4264
252  4295
253  4263
254  4371
255  4297
256  4352
257  4163
258  4351
259  4360
260  4312
261  4321
262  4231
263  4161
264  4325
265  4232
266  4217
267  4191
268  4191
269  4227
270  4307
271  4203
272  4432
273  4231
274  4380
275  4257
276  4170
277  4230
278  4253
279  4243
280  4299
281  4176
282  4236
283  4270
284  4191
285  4352
286  4273
287  4080
288  4201
289  4359
290  4234
291  4203
292  4370
293  4298
294  4300
295  4192
296  4217
297  4255
298  4397
299  4446
300  4184
301  4258
302  4188
303  4232
304  4261
305  4396
306  4315
307  4406
308  4375
309  4207
310  4246
311  4275
312  4304
313  4295
314  4156
315  4405
316  4260
317  4113
318  4151
319  4162
320  4164
321  4153
322  4266
323  4199
324  4207
325  4387
326  4290
327  4314
328  4361
329  4345
330  4322
331  4422
332  4420
333  4316
334  4435
335  4424
336  4365
337  4334
338  4198
339  4370
340  4175
341  4327
342  4416
343  4377
344  4325
345  4278
346  4336
347  4193
348  4448
349  4193
350  4214
351  4285
352  4239
353  4272
354  4318
355  4154
356  4384
357  4255
358  4328
359  4365
360  4315
361  4312
362  4215
363  4326
364  4412
365  4321
366  4332
367  4386
368  4300
369  4302
370  4140
371  4316
372  4352
373  4252
374  4300
375  4186
376  4343
377  4283
378  4256
379  4286
380  4231
381  4288
382  4359
383  4299
384  4278
385  4292
386  4278
387  4294
388  4287
389  4323
390  4231
391  4320
392  4328
393  4274
394  4275
395  4250
396  4284
397  4288
398  4366
399  4280
400  4244
401  4147
402  4257
403  4335
404  4310
405  4233
406  4271
407  4220
408  4284
409  4264
410  4272
411  4359
412  4308
413  4332
414  4288
415  4236
416  4338
417  4443
418  4293
419  4351
420  4401
421  4352
422  4319
423  4390
424  4347
425  4334
426  4342
427  4294
428  4342
429  4222
430  4292
431  4193
432  4257
433  4227
434  4137
435  4342
436  4223
437  4277
438  4201
439  4230
440  4319
441  4298
442  4307
443  4346
444  4110
445  4275
446  4279
447  4211
448  4336
449  4303
450  4266
451  4299
452  4303
453  4327
454  4251
455  4248
456  4287
457  4365
458  4295
459  4194
460  4140
461  4363
462  4193
463  4240
464  4262
465  4299
466  4237
467  4160
468  4375
469  4351
470  4348
471  4335
472  4416
473  4380
474  4333
475  4356
476  4279
477  4300
478  4253
479  4247
480  4326
481  4314
482  4253
483  4230
484  4271
485  4177
486  4232
487  4191
488  4307
489  4213
490  4182
491  4307
492  4205
493  4348
494  4294
495  4232
496  4209
497  4279
498  4343
499  4455
500  4412
501  4302
502  4295
503  4247
504  4273
505  4300
506  4306
507  4287
508  4249
509  4432
510  4318
511  4309
512  4371
513  4171
514  4336
515  4334
516  4360
517  4330
518  4365
519  4302
520  4306
521  4233
522  4335
523  4321
524  4415
525  4254
526  4363
527  4249
528  4203
529  4195
530  4345
531  4256
532  4329
533  4208
534  4163
535  4088
536  4394
537  4263
538  4282
539  4348
540  4308
541  4163
542  4290
543  4213
544  4453
545  4388
546  4362
547  4259
548  4313
549  4312
550  4374
551  4227
552  4270
553  4276
554  4303
555  4323
556  4207
557  4426
558  4417
559  4301
560  4285
561  4294
562  4350
563  4321
564  4254
565  4319
566  4277
567  4375
568  4239
569  4372
570  4248
571  4335
572  4227
573  4188
574  4325
575  4249
576  4329
577  4238
578  4134
579  4306
580  4263
581  4372
582  4190
583  4332
584  4337
585  4295
586  4396
587  4268
588  4256
589  4339
590  4285
591  4356
592  4249
593  4390
594  4232
595  4209
596  4303
597  4334
598  4324
599  4294
600  4300
601  4441
602  4277
603  4236
604  4335
605  4312
606  4417
607  4390
608  4403
609  4345
610  4311
611  4284
612  4246
613  4211
614  4206
615  4268
616  4359
617  4342
618  4327
619  4316
620  4251
621  4246
622  4246
623  4178
624  4289
625  4278
626  4163
627  4458
628  4236
629  4362
630  4325
631  4291
632  4185
633  4367
634  4344
635  4319
636  4350
637  4321
638  4298
639  4324
640  4230
641  4132
642  4318
643  4222
644  4315
645  4303
646  4230
647  4232
648  4299
649  4314
650  4330
651  4278
652  4332
653  4424
654  4326
655  4376
656  4238
657  4251
658  4297
659  4286
660  4213
661  4242
662  4201
663  4395
664  4376
665  4423
666  4249
667  4306
668  4220
669  4432
670  4278
671  4274
672  4377
673  4319
674  4288
675  4321
676  4304
677  4304
678  4238
679  4248
680  4352
681  4396
682  4336
683  4294
684  4370
685  4320
686  4362
687  4429
688  4360
689  4393
690  4233
691  4185
692  4257
693  4267
694  4209
695  4319
696  4254
697  4209
698  4268
699  4262
700  4271
701  4237
702  4258
703  4304
704  4297
705  4363
706  4347
707  4185
708  4203
709  4266
710  4266
711  4259
712  4254
713  4347
714  4280
715  4333
716  4352
717  4160
718  4305
719  4335
720  4258
721  4369
722  4206
723  4375
724  4270
725  4243
726  4385
727  4376
728  4293
729  4394
730  4385
731  4317
732  4242
733  4387
734  4146
735  4305
736  4146
737  4137
738  4328
739  4306
740  4318
741  4244
742  4271
743  4373
744  4142
745  4185
746  4345
747  4221
748  4314
749  4219
750  4376
751  4225
752  4274
753  4329
754  4211
755  4313
756  4311
757  4354
758  4202
759  4455
760  4411
761  4334
762  4303
763  4336
764  4252
765  4316
766  4217
767  4436
768  4237
769  4265
770  4404
771  4263
772  4364
773  4311
774  4354
775  4292
776  4286
777  4366
778  4206
779  4261
780  4333
781  4371
782  4213
783  4222
784  4260
785  4299
786  4295
787  4291
788  4401
789  4260
790  4291
791  4331
792  4356
793  4266
794  4278
795  4100
796  4333
797  4227
798  4258
799  4255
800  4250
801  4296
802  4238
803  4354
804  4253
805  4202
806  4378
807  4132
808  4202
809  4319
810  4339
811  4189
812  4297
813  4323
814  4228
815  4182
816  4210
817  4266
818  4325
819  4291
820  4282
821  4389
822  4223
823  4273
824  4268
825  4281
826  4347
827  4317
828  4388
829  4301
830  4144
831  4461
832  4191
833  4339
834  4151
835  4322
836  4349
837  4204
838  4254
839  4128
840  4222
841  4362
842  4162
843  4295
844  4214
845  4224
846  4335
847  4228
848  4297
849  4335
850  4236
851  4244
852  4328
853  4360
854  4269
855  4321
856  4206
857  4346
858  4249
859  4463
860  4329
861  4215
862  4252
863  4240
864  4181
865  4339
866  4424
867  4305
868  4198
869  4326
870  4265
871  4263
872  4294
873  4446
874  4127
875  4241
876  4328
877  4289
878  4226
879  4237
880  4379
881  4233
882  4392
883  4150
884  4101
885  4245
886  4325
887  4288
888  4215
889  4258
890  4312
891  4390
892  4280
893  4279
894  4236
895  4296
896  4221
897  4295
898  4337
899  4273
900  4270
901  4219
902  4262
903  4207
904  4339
905  4348
906  4210
907  4262
908  4311
909  4253
910  4243
911  4215
912  4387
913  4229
914  4394
915  4291
916  4335
917  4263
918  4365
919  4328
920  4332
921  4201
922  4259
923  4390
924  4378
925  4326
926  4278
927  4276
928  4363
929  4154
930  4254
931  4295
932  4360
933  4234
934  4298
935  4183
936  4310
937  4328
938  4277
939  4224
940  4237
941  4328
942  4282
943  4284
944  4168
945  4203
946  4295
947  4423
948  4269
949  4319
950  4286
951  4256
952  4466
953  4306
954  4251
955  4313
956  4316
957  4309
958  4127
959  4277
960  4296
961  4331
962  4280
963  4222
964  4278
965  4155
966  4275
967  4195
968  4227
969  4239
970  4209
971  4340
972  4198
973  4202
974  4196
975  4268
976  4291
977  4223
978  4218
979  4298
980  4290
981  4383
982  4202
983  4172
984  4278
985  4336
986  4237
987  4268
988  4326
989  4179
990  4404
991  4202
992  4198
993  4262
994  4277
995  4183
996  4256
997  4189
998  4357
999  4381
1000  4323
1001  4299
1002  4351
1003  4306
1004  4281
1005  4293
1006  4246
1007  4333
1008  4284
1009  4228
1010  4270
1011  4210
1012  4227
1013  4238
1014  4341
1015  4212
1016  4201
1017  4279
1018  4327
1019  4329
1020  4383
1021  4211
1022  4415
1023  4271
1024  4219
1025  4253
1026  4277
1027  4165
1028  4385
1029  4159
1030  4300
1031  4310
1032  4288
1033  4248
1034  4238
1035  4209
1036  4258
1037  4287
1038  4354
1039  4307
1040  4426
1041  4212
1042  4317
1043  4307
1044  4320
1045  4225
1046  4279
1047  4175
1048  4276
1049  4259
1050  4307
1051  4228
1052  4240
1053  4394
1054  4442
1055  4310
1056  4272
1057  4283
1058  4275
1059  4263
1060  4183
1061  4323
1062  4205
1063  4321
1064  4313
1065  4211
1066  4338
1067  4314
1068  4374
1069  4328
1070  4281
1071  4458
1072  4343
1073  4375
1074  4307
1075  4253
1076  4288
1077  4264
1078  4233
1079  4287
1080  4270
1081  4266
1082  4330
1083  4321
1084  4320
1085  4340
1086  4279
1087  4318
1088  4277
1089  4229
1090  4279
1091  4293
1092  4216
1093  4396
1094  4391
1095  4339
1096  4226
1097  4230
1098  4379
1099  4244
1100  4291
1101  4227
1102  4258
1103  4370
1104  4227
1105  4250
1106  4278
1107  4287
1108  4260
1109  4155
1110  4288
1111  4293
1112  4192
1113  4350
1114  4174
1115  4301
1116  4221
1117  4302
1118  4254
1119  4293
1120  4211
1121  4262
1122  4366
1123  4369
1124  4368
1125  4185
1126  4441
1127  4321
1128  4283
1129  4287
1130  4190
1131  4281
1132  4350
1133  4260
1134  4359
1135  4251
1136  4306
1137  4204
1138  4297
1139  4416
1140  4329
1141  4168
1142  4275
1143  4270
1144  4205
1145  4182
1146  4348
1147  4220
1148  4263
1149  4314
1150  4306
1151  4288
1152  4379
1153  4327
1154  4255
1155  4352
1156  4186
1157  4225
1158  4355
1159  4217
1160  4351
1161  4300
1162  4293
1163  4166
1164  4324
1165  4304
1166  4282
1167  4252
1168  4434
1169  4255
1170  4325
1171  4259
1172  4298
1173  4266
1174  4301
1175  4237
1176  4197
1177  4234
1178  4353
1179  4268
1180  4304
1181  4266
1182  4256
1183  4345
1184  4186
1185  4311
1186  4305
1187  4288
1188  4394
1189  4323
1190  4435
1191  4282
1192  4219
1193  4270
1194  4217
1195  4285
1196  4182
1197  4290
1198  4254
1199  4140
1200  4152
1201  4404
1202  4239
1203  4242
1204  4230
1205  4300
1206  4345
1207  4173
1208  4304
1209  4251
1210  4222
1211  4338
1212  4258
1213  4221
1214  4351
1215  4306
1216  4253
1217  4279
1218  4198
1219  4400
1220  4338
1221  4283
1222  4337
1223  4312
1224  4157
1225  4342
1226  4308
1227  4383
1228  4325
1229  4330
1230  4270
1231  4203
1232  4270
1233  4165
1234  4233
1235  4423
1236  4248
1237  4305
1238  4232
1239  4307
1240  4229
1241  4335
1242  4216
1243  4254
1244  4295
1245  4354
1246  4278
1247  4353
1248  4276
1249  4357
1250  4267
1251  4342
1252  4235
1253  4294
1254  4147
1255  4283
1256  4378
1257  4333
1258  4344
1259  4247
1260  4298
1261  4348
1262  4337
1263  4371
1264  4201
1265  4311
1266  4321
1267  4311
1268  4281
1269  4238
1270  4315
1271  4231
1272  4380
1273  4332
1274  4380
1275  4335
1276  4280
1277  4170
1278  4305
1279  4312
1280  4237
1281  4249
1282  4166
1283  4235
1284  4369
1285  4352
1286  4288
1287  4313
1288  4217
1289  4254
1290  4352
1291  4333
1292  4349
1293  4299
1294  4305
1295  4202
1296  4291
1297  4275
1298  4283
1299  4340
1300  4408
1301  4232
1302  4334
1303  4211
1304  4228
1305  4358
1306  4451
1307  4325
1308  4247
1309  4266
1310  4188
1311  4197
1312  4297
1313  4351
1314  4243
1315  4303
1316  4224
1317  4373
1318  4345
1319  4342
1320  4274
1321  4304
1322  4320
1323  4318
1324  4314
1325  4252
1326  4229
1327  4274
1328  4333
1329  4268
1330  4142
1331  4252
1332  4348
1333  4259
1334  4405
1335  4294
1336  4384
1337  4262
1338  4234
1339  4289
1340  4232
1341  4333
1342  4284
1343  4233
1344  4238
1345  4228
1346  4233
1347  4277
1348  4327
1349  4459
1350  4170
1351  4135
1352  4195
1353  4350
1354  4351
1355  4376
1356  4316
1357  4316
1358  4294
1359  4317
1360  4225
1361  4325
1362  4228
1363  4271
1364  4176
1365  4210
1366  4331
1367  4295
1368  4373
1369  4322
1370  4278
1371  4332
1372  4362
1373  4316
1374  4370
1375  4394
1376  4255
1377  4327
1378  4268
1379  4307
1380  4296
1381  4395
1382  4184
1383  4284
1384  4292
1385  4272
1386  4365
1387  4225
1388  4216
1389  4389
1390  4165
1391  4470
1392  4284
1393  4274
1394  4297
1395  4197
1396  4309
1397  4298
1398  4283
1399  4277
1400  4350
1401  4326
1402  4313
1403  4369
1404  4439
1405  4290
1406  4301
1407  4300
1408  4352
1409  4387
1410  4337
1411  4235
1412  4213
1413  4171
1414  4351
1415  4223
1416  4085
1417  4360
1418  4316
1419  4233
1420  4290
1421  4346
1422  4384
1423  4261
1424  4242
1425  4277
1426  4263
1427  4248
1428  4240
1429  4254
1430  4307
1431  4227
1432  4363
1433  4273
1434  4329
1435  4223
1436  4205
1437  4255
1438  4248
1439  4282
1440  4329
1441  4302
1442  4294
1443  4367
1444  4340
1445  4285
1446  4220
1447  4259
1448  4258
1449  4208
1450  4293
1451  4239
1452  4289
1453  4296
1454  4233
1455  4289
1456  4296
1457  4355
1458  4316
1459  4317
1460  4287
1461  4186
1462  4256
1463  4243
1464  4241
1465  4244
1466  4324
1467  4222
1468  4209
1469  4218
1470  4220
1471  4409
1472  4222
1473  4189
1474  4283
1475  4246
1476  4333
1477  4274
1478  4294
1479  4228
1480  4310
1481  4293
1482  4283
1483  4313
1484  4264
1485  4253
1486  4436
1487  4114
1488  4371
1489  4207
1490  4357
1491  4320
1492  4378
1493  4285
1494  4328
1495  4270
1496  4236
1497  4317
1498  4360
1499  4320
1500  4289
1501  4249
1502  4273
1503  4316
1504  4202
1505  4206
1506  4275
1507  4151
1508  4202
1509  4246
1510  4302
1511  4290
1512  4349
1513  4334
1514  4229
1515  4259
1516  4391
1517  4299
1518  4237
1519  4276
1520  4254
1521  4265
1522  4410
1523  4289
1524  4231
1525  4233
1526  4368
1527  4326
1528  4302
1529  4371
1530  4245
1531  4268
1532  4359
1533  4246
1534  4193
1535  4212
1536  4276
1537  4286
1538  4161
1539  4396
1540  4381
1541  4342
1542  4275
1543  4403
1544  4293
1545  4300
1546  4294
1547  4233
1548  4304
1549  4210
1550  4180
1551  4321
1552  4330
1553  4249
1554  4294
1555  4256
1556  4219
1557  4270
1558  4306
1559  4258
1560  4318
1561  4269
1562  4264
1563  4239
1564  4226
1565  4173
1566  4276
1567  4293
1568  4296
1569  4363
1570  4118
1571  4238
1572  4284
1573  4325
1574  4348
1575  4490
1576  4337
1577  4365
1578  4229
1579  4280
1580  4278
1581  4235
1582  4284
1583  4212
1584  4204
1585  4317
1586  4245
1587  4249
1588  4265
1589  4319
1590  4283
1591  4274
1592  4384
1593  4407
1594  4250
1595  4160
1596  4378
1597  4368
1598  4319
1599  4318
1600  4292
1601  4249
1602  4374
1603  4268
1604  4273
1605  4286
1606  4279
1607  4269
1608  4323
1609  4288
1610  4388
1611  4322
1612  4259
1613  4358
1614  4387
1615  4297
1616  4396
1617  4424
1618  4312
1619  4486
1620  4293
1621  4240
1622  4231
1623  4336
1624  4402
1625  4356
1626  4215
1627  4206
1628  4167
1629  4405
1630  4272
1631  4366
1632  4339
1633  4330
1634  4396
1635  4261
1636  4371
1637  4148
1638  4334
1639  4286
1640  4301
1641  4313
1642  4309
1643  4283
1644  4196
1645  4304
1646  4233
1647  4417
1648  4201
1649  4326
1650  4237
1651  4221
1652  4289
1653  4312
1654  4175
1655  4313
1656  4247
1657  4190
1658  4276
1659  4277
1660  4292
1661  4194
1662  4227
1663  4244
1664  4386
1665  4288
1666  4294
1667  4242
1668  4250
1669  4237
1670  4271
1671  4242
1672  4199
1673  4200
1674  4223
1675  4442
1676  4281
1677  4313
1678  4253
1679  4286
1680  4315
1681  4419
1682  4303
1683  4259
1684  4245
1685  4338
1686  4289
1687  4273
1688  4270
1689  4355
1690  4238
1691  4391
1692  4312
1693  4260
1694  4333
1695  4247
1696  4372
1697  4260
1698  4370
1699  4347
1700  4312
1701  4240
1702  4260
1703  4280
1704  4354
1705  4358
1706  4248
1707  4296
1708  4103
1709  4380
1710  4336
1711  4265
1712  4231
1713  4269
1714  4341
1715  4312
1716  4300
1717  4189
1718  4198
1719  4274
1720  4321
1721  4208
1722  4351
1723  4222
1724  4304
1725  4436
1726  4291
1727  4441
1728  4264
1729  4198
1730  4322
1731  4278
1732  4316
1733  4254
1734  4348
1735  4427
1736  4166
1737  4309
1738  4257
1739  4277
1740  4360
1741  4367
1742  4349
1743  4305
1744  4118
1745  4179
1746  4310
1747  4254
1748  4319
1749  4332
1750  4333
1751  4305
1752  4199
1753  4334
1754  4257
1755  4260
1756  4390
1757  4330
1758  4304
1759  4360
1760  4320
1761  4304
1762  4272
1763  4387
1764  4249
1765  4370
1766  4221
1767  4311
1768  4372
1769  4292
1770  4335
1771  4244
1772  4323
1773  4268
1774  4279
1775  4286
1776  4406
1777  4239
1778  4263
1779  4353
1780  4308
1781  4190
1782  4260
1783  4384
1784  4240
1785  4303
1786  4379
1787  4314
1788  4337
1789  4237
1790  4356
1791  4406
1792  4262
1793  4376
1794  4239
1795  4357
1796  4201
1797  4270
1798  4256
1799  4209
1800  4503
1801  4311
1802  4238
1803  4274
1804  4264
1805  4346
1806  4475
1807  4349
1808  4371
1809  4364
1810  4398
1811  4361
1812  4320
1813  4278
1814  4252
1815  4272
1816  4281
1817  4320
1818  4370
1819  4449
1820  4330
1821  4315
1822  4390
1823  4395
1824  4258
1825  4316
1826  4227
1827  4296
1828  4251
1829  4385
1830  4363
1831  4252
1832  4258
1833  4283
1834  4348
1835  4229
1836  4267
1837  4261
1838  4358
1839  4249
1840  4337
1841  4420
1842  4363
1843  4253
1844  4350
1845  4281
1846  4281
1847  4293
1848  4213
1849  4251
1850  4349
1851  4267
1852  4193
1853  4287
1854  4151
1855  4247
1856  4279
1857  4272
1858  4275
1859  4363
1860  4193
1861  4359
1862  4313
1863  4236
1864  4269
1865  4226
1866  4302
1867  4285
1868  4361
1869  4247
1870  4297
1871  4327
1872  4250
1873  4239
1874  4339
1875  4278
1876  4218
1877  4320
1878  4228
1879  4361
1880  4336
1881  4299
1882  4223
1883  4273
1884  4260
1885  4246
1886  4420
1887  4280
1888  4324
1889  4282
1890  4323
1891  4251
1892  4244
1893  4285
1894  4228
1895  4391
1896  4226
1897  4186
1898  4311
1899  4305
1900  4342
1901  4318
1902  4317
1903  4214
1904  4381
1905  4291
1906  4160
1907  4269
1908  4171
1909  4248
1910  4207
1911  4186
1912  4306
1913  4291
1914  4278
1915  4286
1916  4258
1917  4210
1918  4232
1919  4243
1920  4227
1921  4359
1922  4264
1923  4404
1924  4161
1925  4359
1926  4253
1927  4277
1928  4273
1929  4270
1930  4139
1931  4274
1932  4324
1933  4350
1934  4239
1935  4322
1936  4186
1937  4308
1938  4357
1939  4113
1940  4276
1941  4419
1942  4365
1943  4343
1944  4355
1945  4269
1946  4327
1947  4280
1948  4328
1949  4301
1950  4295
1951  4251
1952  4258
1953  4262
1954  4301
1955  4236
1956  4280
1957  4390
1958  4353
1959  4330
1960  4325
1961  4330
1962  4321
1963  4339
1964  4261
1965  4220
1966  4315
1967  4266
1968  4200
1969  4313
1970  4280
1971  4297
1972  4240
1973  4437
1974  4259
1975  4265
1976  4261
1977  4197
1978  4346
1979  4224
1980  4316
1981  4250
1982  4252
1983  4277
1984  4291
1985  4297
1986  4437
1987  4256
1988  4173
1989  4294
1990  4246
1991  4209
1992  4201
1993  4287
1994  4349
1995  4271
1996  4246
1997  4272
1998  4244
1999  4352
2000  4220
2001  4359
2002  4212
2003  4216
2004  4235
2005  4308
2006  4369
2007  4253
2008  4250
2009  4367
2010  4419
2011  4266
2012  4216
2013  4303
2014  4291
2015  4263
2016  4329
2017  4198
2018  4245
2019  4306
2020  4270
2021  4238
2022  4358
2023  4234
2024  4241
2025  4424
2026  4346
2027  4268
2028  4249
2029  4362
2030  4249
2031  4333
2032  4281
2033  4309
2034  4338
2035  4245
2036  4203
2037  4309
2038  4286
2039  4239
2040  4154
2041  4258
2042  4366
2043  4296
2044  4345
2045  4203
2046  4268
2047  4387
2048  4237
2049  4242
2050  4218
2051  4204
2052  4216
2053  4252
2054  4268
2055  4261
2056  4200
2057  4305
2058  4247
2059  4372
2060  4315
2061  4361
2062  4268
2063  4425
2064  4266
2065  4304
2066  4328
2067  4369
2068  4307
2069  4347
2070  4341
2071  4225
2072  4331
2073  4356
2074  4325
2075  4346
2076  4313
2077  4251
2078  4213
2079  4294
2080  4245
2081  4165
2082  4322
2083  4338
2084  4297
2085  4264
2086  4360
2087  4241
2088  4280
2089  4189
2090  4405
2091  4310
2092  4395
2093  4296
2094  4171
2095  4253
2096  4340
2097  4152
2098  4421
2099  4366
2100  4221
2101  4319
2102  4371
2103  4215
2104  4240
2105  4355
2106  4243
2107  4239
2108  4311
2109  4299
2110  4421
2111  4206
2112  4194
2113  4315
2114  4378
2115  4330
2116  4373
2117  4288
2118  4162
2119  4165
2120  4326
2121  4316
2122  4336
2123  4354
2124  4345
2125  4159
2126  4364
2127  4184
2128  4180
2129  4498
2130  4278
2131  4358
2132  4299
2133  4334
2134  4288
2135  4367
2136  4255
2137  4228
2138  4304
2139  4310
2140  4344
2141  4237
2142  4283
2143  4344
2144  4388
2145  4328
2146  4265
2147  4236
2148  4360
2149  4412
2150  4297
2151  4321
2152  4343
2153  4295
2154  4264
2155  4303
2156  4227
2157  4346
2158  4201
2159  4342
2160  4355
2161  4245
2162  4217
2163  4424
2164  4257
2165  4198
2166  4239
2167  4290
2168  4187
2169  4229
2170  4361
2171  4292
2172  4152
2173  4316
2174  4328
2175  4332
2176  4228
2177  4402
2178  4256
2179  4335
2180  4275
2181  4330
2182  4279
2183  4259
2184  4298
2185  4338
2186  4357
2187  4461
2188  4223
2189  4270
2190  4258
2191  4297
2192  4295
2193  4280
2194  4368
2195  4259
2196  4177
2197  4313
2198  4301
2199  4415
2200  4161
2201  4240
2202  4259
2203  4331
2204  4243
2205  4309
2206  4336
2207  4296
2208  4316
2209  4277
2210  4328
2211  4254
2212  4273
2213  4135
2214  4312
2215  4369
2216  4273
2217  4314
2218  4310
2219  4277
2220  4346
2221  4400
2222  4275
2223  4277
2224  4351
2225  4347
2226  4265
2227  4212
2228  4318
2229  4281
2230  4436
2231  4339
2232  4437
2233  4427
2234  4190
2235  4200
2236  4232
2237  4337
2238  4408
2239  4429
2240  4243
2241  4250
2242  4372
2243  4339
2244  4216
2245  4173
2246  4241
2247  4280
2248  4300
2249  4287
2250  4365
2251  4378
2252  4187
2253  4255
2254  4319
2255  4396
2256  4265
2257  4335
2258  4270
2259  4376
2260  4326
2261  4223
2262  4241
2263  4438
2264  4343
2265  4319
2266  4270
2267  4319
2268  4365
2269  4263
2270  4178
2271  4409
2272  4222
2273  4270
2274  4279
2275  4387
2276  4338
2277  4263
2278  4189
2279  4269
2280  4279
2281  4330
2282  4324
2283  4411
2284  4201
2285  4266
2286  4241
2287  4317
2288  4219
2289  4302
2290  4243
2291  4219
2292  4155
2293  4225
2294  4065
2295  4227
2296  4291
2297  4264
2298  4338
2299  4410
2300  4320
2301  4304
2302  4438
2303  4344
2304  4229
2305  4300
2306  4366
2307  4227
2308  4289
2309  4171
2310  4280
2311  4297
2312  4328
2313  4227
2314  4364
2315  4171
2316  4324
2317  4389
2318  4159
2319  4249
2320  4292
2321  4242
2322  4237
2323  4298
2324  4361
2325  4199
2326  4278
2327  4319
2328  4371
2329  4250
2330  4176
2331  4281
2332  4230
2333  4181
2334  4312
2335  4296
2336  4302
2337  4286
2338  4316
2339  4382
2340  4298
2341  4314
2342  4312
2343  4232
2344  4270
2345  4323
2346  4268
2347  4304
2348  4227
2349  4365
2350  4239
2351  4267
2352  4298
2353  4391
2354  4350
2355  4165
2356  4213
2357  4347
2358  4299
2359  4244
2360  4354
2361  4219
2362  4243
2363  4425
2364  4187
2365  4324
2366  4312
2367  4254
2368  4323
2369  4273
2370  4161
2371  4298
2372  4262
2373  4259
2374  4208
2375  4281
2376  4242
2377  4338
2378  4365
2379  4213
2380  4267
2381  4242
2382  4310
2383  4270
2384  4412
2385  4348
2386  4288
2387  4244
2388  4240
2389  4285
2390  4243
2391  4311
2392  4210
2393  4364
2394  4280
2395  4341
2396  4282
2397  4352
2398  4408
2399  4222
2400  4254
2401  4297
2402  4230
2403  4280
2404  4186
2405  4387
2406  4267
2407  4323
2408  4164
2409  4363
2410  4254
2411  4369
2412  4319
2413  4225
2414  4288
2415  4301
2416  4148
2417  4326
2418  4319
2419  4256
2420  4382
2421  4293
2422  4297
2423  4256
2424  4303
2425  4368
2426  4201
2427  4287
2428  4173
2429  4312
2430  4290
2431  4204
2432  4247
2433  4348
2434  4317
2435  4361
2436  4247
2437  4273
2438  4294
2439  4361
2440  4252
2441  4254
2442  4394
2443  4252
2444  4235
2445  4264
2446  4306
2447  4220
2448  4256
2449  4181
2450  4284
2451  4388
2452  4389
2453  4257
2454  4424
2455  4271
2456  4352
2457  4312
2458  4307
2459  4273
2460  4291
2461  4402
2462  4318
2463  4318
2464  4173
2465  4336
2466  4342
2467  4208
2468  4272
2469  4292
2470  4219
2471  4375
2472  4212
2473  4359
2474  4345
2475  4196
2476  4284
2477  4314
2478  4355
2479  4289
2480  4294
2481  4272
2482  4243
2483  4275
2484  4247
2485  4215
2486  4271
2487  4355
2488  4391
2489  4324
2490  4281
2491  4443
2492  4201
2493  4182
2494  4323
2495  4243
2496  4251
2497  4220
2498  4269
2499  4370
2500  4292
2501  4295
2502  4129
2503  4290
2504  4210
2505  4237
2506  4342
2507  4278
2508  4290
2509  4231
2510  4252
2511  4196
2512  4252
2513  4329
2514  4378
2515  4342
2516  4343
2517  4239
2518  4300
2519  4263
2520  4320
2521  4296
2522  4182
2523  4272
2524  4205
2525  4199
2526  4267
2527  4417
2528  4186
2529  4241
2530  4253
2531  4342
2532  4300
2533  4268
2534  4223
2535  4257
2536  4276
2537  4267
2538  4339
2539  4289
2540  4266
2541  4254
2542  4326
2543  4299
2544  4254
2545  4325
2546  4166
2547  4190
2548  4342
2549  4411
2550  4276
2551  4332
2552  4231
2553  4271
2554  4214
2555  4180
2556  4383
2557  4306
2558  4355
2559  4303
2560  4393
2561  4310
2562  4184
2563  4295
2564  4222
2565  4249
2566  4256
2567  4305
2568  4319
2569  4305
2570  4242
2571  4300
2572  4247
2573  4336
2574  4296
2575  4283
2576  4238
2577  4334
2578  4421
2579  4344
2580  4350
2581  4262
2582  4300
2583  4293
2584  4147
2585  4321
2586  4308
2587  4269
2588  4336
2589  4279
2590  4213
2591  4266
2592  4316
2593  4397
2594  4248
2595  4273
2596  4236
2597  4370
2598  4286
2599  4147
2600  4364
2601  4380
2602  4311
2603  4276
2604  4388
2605  4155
2606  4260
2607  4300
2608  4215
2609  4295
2610  4289
2611  4336
2612  4270
2613  4299
2614  4267
2615  4220
2616  4356
2617  4108
2618  4424
2619  4251
2620  4324
2621  4332
2622  4370
2623  4221
2624  4429
2625  4266
2626  4208
2627  4303
2628  4216
2629  4373
2630  4172
2631  4329
2632  4292
2633  4386
2634  4217
2635  4329
2636  4191
2637  4250
2638  4264
2639  4374
2640  4340
2641  4303
2642  4223
2643  4259
2644  4376
2645  4376
2646  4293
2647  4397
2648  4295
2649  4297
2650  4329
2651  4411
2652  4403
2653  4287
2654  4223
2655  4288
2656  4305
2657  4347
2658  4331
2659  4254
2660  4272
2661  4410
2662  4269
2663  4227
2664  4299
2665  4265
2666  4361
2667  4362
2668  4376
2669  4294
2670  4337
2671  4233
2672  4392
2673  4222
2674  4349
2675  4340
2676  4353
2677  4280
2678  4292
2679  4077
2680  4268
2681  4278
2682  4390
2683  4234
2684  4390
2685  4284
2686  4119
2687  4371
2688  4285
2689  4418
2690  4301
2691  4242
2692  4378
2693  4216
2694  4394
2695  4315
2696  4262
2697  4334
2698  4248
2699  4321
2700  4242
2701  4364
2702  4257
2703  4274
2704  4230
2705  4355
2706  4315
2707  4323
2708  4361
2709  4257
2710  4354
2711  4198
2712  4435
2713  4291
2714  4305
2715  4342
2716  4289
2717  4262
2718  4330
2719  4293
2720  4346
2721  4328
2722  4286
2723  4209
2724  4176
2725  4273
2726  4278
2727  4237
2728  4396
2729  4425
2730  4334
2731  4267
2732  4208
2733  4280
2734  4379
2735  4224
2736  4308
2737  4346
2738  4322
2739  4201
2740  4179
2741  4258
2742  4302
2743  4222
2744  4323
2745  4184
2746  4219
2747  4302
2748  4145
2749  4282
2750  4346
2751  4267
2752  4176
2753  4234
2754  4378
2755  4155
2756  4311
2757  4243
2758  4338
2759  4288
2760  4302
2761  4122
2762  4394
2763  4384
2764  4283
2765  4262
2766  4272
2767  4176
2768  4274
2769  4184
2770  4245
2771  4186
2772  4308
2773  4318
2774  4288
2775  4310
2776  4255
2777  4332
2778  4263
2779  4352
2780  4353
2781  4350
2782  4335
2783  4215
2784  4238
2785  4332
2786  4428
2787  4275
2788  4182
2789  4213
2790  4315
2791  4261
2792  4343
2793  4337
2794  4295
2795  4184
2796  4274
2797  4258
2798  4338
2799  4351
2800  4276
2801  4214
2802  4377
2803  4124
2804  4214
2805  4276
2806  4219
2807  4261
2808  4224
2809  4235
2810  4230
2811  4381
2812  4278
2813  4229
2814  4172
2815  4400
2816  4285
2817  4236
2818  4291
2819  4354
2820  4211
2821  4351
2822  4361
2823  4343
2824  4222
2825  4341
2826  4224
2827  4294
2828  4332
2829  4357
2830  4343
2831  4269
2832  4275
2833  4304
2834  4332
2835  4239
2836  4276
2837  4357
2838  4285
2839  4450
2840  4322
2841  4357
2842  4335
2843  4242
2844  4470
2845  4330
2846  4294
2847  4332
2848  4352
2849  4268
2850  4333
2851  4253
2852  4392
2853  4291
2854  4311
2855  4128
2856  4150
2857  4202
2858  4425
2859  4254
2860  4339
2861  4265
2862  4262
2863  4217
2864  4368
2865  4333
2866  4311
2867  4253
2868  4288
2869  4245
2870  4324
2871  4301
2872  4276
2873  4299
2874  4410
2875  4326
2876  4183
2877  4336
2878  4264
2879  4431
2880  4278
2881  4266
2882  4331
2883  4236
2884  4246
2885  4304
2886  4304
2887  4239
2888  4307
2889  4321
2890  4246
2891  4323
2892  4316
2893  4277
2894  4242
2895  4186
2896  4310
2897  4370
2898  4345
2899  4316
2900  4318
2901  4370
2902  4354
2903  4254
2904  4281
2905  4265
2906  4330
2907  4243
2908  4292
2909  4306
2910  4319
2911  4216
2912  4245
2913  4327
2914  4304
2915  4316
2916  4209
2917  4248
2918  4326
2919  4294
2920  4174
2921  4410
2922  4308
2923  4272
2924  4225
2925  4306
2926  4224
2927  4315
2928  4318
2929  4292
2930  4241
2931  4266
2932  4216
2933  4281
2934  4371
2935  4318
2936  4190
2937  4358
2938  4313
2939  4251
2940  4338
2941  4245
2942  4234
2943  4239
2944  4191
2945  4318
2946  4382
2947  4320
2948  4313
2949  4373
2950  4308
2951  4316
2952  4305
2953  4251
2954  4267
2955  4360
2956  4281
2957  4328
2958  4246
2959  4309
2960  4415
2961  4158
2962  4258
2963  4313
2964  4201
2965  4318
2966  4117
2967  4274
2968  4249
2969  4335
2970  4376
2971  4220
2972  4337
2973  4254
2974  4256
2975  4303
2976  4353
2977  4261
2978  4300
2979  4170
2980  4309
2981  4234
2982  4361
2983  4412
2984  4382
2985  4291
2986  4235
2987  4323
2988  4265
2989  4238
2990  4125
2991  4318
2992  4242
2993  4300
2994  4214
2995  4248
2996  4350
2997  4239
2998  4230
2999  4253
3000  4267
3001  4354
3002  4330
3003  4306
3004  4307
3005  4307
3006  4305
3007  4328
3008  4276
3009  4308
3010  4245
3011  4444
3012  4245
3013  4263
3014  4259
3015  4411
3016  4376
3017  4316
3018  4299
3019  4402
3020  4162
3021  4299
3022  4262
3023  4349
3024  4290
3025  4246
3026  4321
3027  4285
3028  4294
3029  4275
3030  4407
3031  4290
3032  4333
3033  4282
3034  4321
3035  4300
3036  4265
3037  4288
3038  4165
3039  4336
3040  4215
3041  4293
3042  4257
3043  4363
3044  4326
3045  4286
3046  4335
3047  4363
3048  4334
3049  4306
3050  4232
3051  4336
3052  4196
3053  4292
3054  4321
3055  4304
3056  4304
3057  4282
3058  4380
3059  4382
3060  4332
3061  4263
3062  4292
3063  4424
3064  4281
3065  4333
3066  4304
3067  4242
3068  4349
3069  4263
3070  4232
3071  4336
3072  4272
3073  4239
3074  4287
3075  4221
3076  4309
3077  4191
3078  4211
3079  4341
3080  4398
3081  4256
3082  4290
3083  4379
3084  4263
3085  4263
3086  4334
3087  4230
3088  4329
3089  4226
3090  4272
3091  4285
3092  4285
3093  4248
3094  4302
3095  4358
3096  4292
3097  4338
3098  4219
3099  4220
3100  4235
3101  4245
3102  4322
3103  4273
3104  4266
3105  4254
3106  4428
3107  4254
3108  4256
3109  4363
3110  4305
3111  4336
3112  4338
3113  4196
3114  4314
3115  4215
3116  4429
3117  4224
3118  4340
3119  4226
3120  4236
3121  4321
3122  4301
3123  4200
3124  4230
3125  4362
3126  4349
3127  4257
3128  4278
3129  4277
3130  4326
3131  4347
3132  4239
3133  4367
3134  4259
3135  4312
3136  4220
3137  4325
3138  4279
3139  4166
3140  4301
3141  4214
3142  4395
3143  4327
3144  4330
3145  4319
3146  4291
3147  4335
3148  4377
3149  4158
3150  4271
3151  4281
3152  4200
3153  4327
3154  4338
3155  4306
3156  4188
3157  4319
3158  4319
3159  4330
3160  4352
3161  4201
3162  4303
3163  4309
3164  4368
3165  4312
3166  4381
3167  4251
3168  4409
3169  4225
3170  4264
3171  4324
3172  4254
3173  4187
3174  4371
3175  4259
3176  4369
3177  4314
3178  4317
3179  4220
3180  4369
3181  4324
3182  4263
3183  4285
3184  4250
3185  4322
3186  4250
3187  4172
3188  4228
3189  4321
3190  4418
3191  4290
3192  4359
3193  4305
3194  4260
3195  4176
3196  4199
3197  4307
3198  4267
3199  4283
3200  4271
3201  4334
3202  4311
3203  4246
3204  4281
3205  4318
3206  4306
3207  4245
3208  4240
3209  4239
3210  4441
3211  4278
3212  4251
3213  4325
3214  4218
3215  4331
3216  4266
3217  4296
3218  4311
3219  4365
3220  4278
3221  4301
3222  4255
3223  4229
3224  4265
3225  4284
3226  4317
3227  4239
3228  4344
3229  4301
3230  4231
3231  4308
3232  4299
3233  4316
3234  4245
3235  4347
3236  4286
3237  4253
3238  4237
3239  4286
3240  4253
3241  4262
3242  4409
3243  4259
3244  4301
3245  4258
3246  4361
3247  4443
3248  4333
3249  4258
3250  4262
3251  4345
3252  4358
3253  4397
3254  4177
3255  4226
3256  4253
3257  4139
3258  4339
3259  4314
3260  4228
3261  4389
3262  4370
3263  4296
3264  4301
3265  4410
3266  4156
3267  4269
3268  4336
3269  4343
3270  4217
3271  4267
3272  4264
3273  4356
3274  4347
3275  4322
3276  4321
3277  4145
3278  4298
3279  4378
3280  4301
3281  4417
3282  4339
3283  4313
3284  4332
3285  4159
3286  4182
3287  4242
3288  4172
3289  4400
3290  4136
3291  4335
3292  4258
3293  4259
3294  4254
3295  4187
3296  4258
3297  4282
3298  4082
3299  4268
3300  4239
3301  4405
3302  4436
3303  4206
3304  4327
3305  4337
3306  4233
3307  4301
3308  4189
3309  4221
3310  4284
3311  4204
3312  4322
3313  4302
3314  4304
3315  4396
3316  4293
3317  4218
3318  4250
3319  4244
3320  4309
3321  4238
3322  4378
3323  4226
3324  4233
3325  4310
3326  4128
3327  4245
3328  4390
3329  4334
3330  4284
3331  4224
3332  4380
3333  4221
3334  4258
3335  4326
3336  4079
3337  4344
3338  4285
3339  4313
3340  4313
3341  4304
3342  4248
3343  4277
3344  4206
3345  4332
3346  4162
3347  4319
3348  4260
3349  4355
3350  4416
3351  4303
3352  4327
3353  4184
3354  4395
3355  4318
3356  4276
3357  4322
3358  4232
3359  4194
3360  4315
3361  4323
3362  4278
3363  4350
3364  4396
3365  4414
3366  4334
3367  4286
3368  4360
3369  4315
3370  4228
3371  4383
3372  4337
3373  4189
3374  4303
3375  4332
3376  4249
3377  4379
3378  4312
3379  4143
3380  4349
3381  4297
3382  4227
3383  4309
3384  4327
3385  4295
3386  4224
3387  4194
3388  4328
3389  4335
3390  4319
3391  4352
3392  4385
3393  4364
3394  4253
3395  4318
3396  4422
3397  4342
3398  4269
3399  4303
3400  4335
3401  4212
3402  4417
3403  4209
3404  4130
3405  4306
3406  4411
3407  4281
3408  4188
3409  4208
3410  4298
3411  4294
3412  4304
3413  4258
3414  4367
3415  4413
3416  4256
3417  4270
3418  4213
3419  4310
3420  4312
3421  4325
3422  4352
3423  4190
3424  4338
3425  4327
3426  4343
3427  4371
3428  4259
3429  4366
3430  4268
3431  4280
3432  4244
3433  4261
3434  4197
3435  4276
3436  4245
3437  4284
3438  4229
3439  4312
3440  4421
3441  4299
3442  4289
3443  4410
3444  4401
3445  4378
3446  4320
3447  4380
3448  4242
3449  4304
3450  4494
3451  4376
3452  4313
3453  4319
3454  4311
3455  4256
3456  4157
3457  4354
3458  4331
3459  4306
3460  4232
3461  4278
3462  4280
3463  4286
3464  4238
3465  4287
3466  4312
3467  4366
3468  4264
3469  4298
3470  4320
3471  4236
3472  4323
3473  4318
3474  4243
3475  4274
3476  4279
3477  4236
3478  4326
3479  4247
3480  4228
3481  4238
3482  4339
3483  4264
3484  4232
3485  4178
3486  4221
3487  4265
3488  4299
3489  4134
3490  3872
3491  3675
3492  3363
3493  3039
3494  2504
3495  2143
3496  1809
3497  1560
3498  1349
3499  1216
3500  1030
3501  928
3502  883
3503  666
3504  585
3505  458
3506  335
3507  238
3508  177
3509  98
3510  72
3511  58
3512  31
3513  39
3514  14
3515  21
3516  16
3517  8
3518  7
3519  8
3520  5
3521  2
3522  3
3523  4
3524  3
3525  0
3526  1
3527  0
3528  0
3529  0
3530  0
3531  0
3532  0
3533  0
3534  0
3535  0
3536  0
3537  0
3538  0
3539  0
3540  0
3541  0
3542  0
3543  0
3544  0
3545  0
3546  0
3547  0
3548  0
3549  0
3550  0
3551  0
3552  0
3553  0
3554  0
3555  0
3556  0
3557  0
3558  0
3559  0
3560  0
3561  0
3562  0
3563  0
3564  0
3565  0
3566  0
3567  0
3568  0
3569  0
3570  0
3571  0
3572  0
3573  0
3574  0
3575  0
3576  0
3577  0
3578  0
3579  0
3580  0
3581  0
3582  0
3583  0
3584  0
3585  0
3586  0
3587  0
3588  0
3589  0
3590  0
3591  0
3592  0
3593  0
3594  0
3595  0
3596  0
3597  0
3598  0
3599  0
3600  0
3601  0
3602  0
3603  0
3604  0
3605  0
3606  0
3607  0
3608  0
3609  0
3610  0
3611  0
3612  0
3613  0
3614  0
3615  0
3616  0
3617  0
3618  0
3619  0
3620  0
3621  0
3622  0
3623  0
3624  0
3625  0
3626  0
3627  0
3628  0
3629  0
3630  0
3631  0
3632  0
3633  0
3634  0
3635  0
3636  0
3637  0
3638  0
3639  0
3640  0
3641  0
3642  0
3643  0
3644  0
3645  0
3646  0
3647  0
3648  0
3649  0
3650  0
3651  0
3652  0
3653  0
3654  0
3655  0
3656  0
3657  0
3658  0
3659  0
3660  0
3661  0
3662  0
3663  0
3664  0
3665  0
3666  0
3667  0
3668  0
3669  0
3670  0
3671  0
3672  0
3673  0
3674  0
3675  0
3676  0
3677  0
3678  0
3679  0
3680  0
3681  0
3682  0
3683  0
3684  0
3685  0
3686  0
3687  0
3688  0
3689  0
3690  0
3691  0
3692  0
3693  0
3694  0
3695  0
3696  0
3697  0
3698  0
3699  0
3700  0
3701  0
3702  0
3703  0
3704  0
3705  0
3706  0
3707  0
3708  0
3709  0
3710  0
3711  0
3712  0
3713  0
3714  0
3715  0
3716  0
3717  0
3718  0
3719  0
3720  0
3721  0
3722  0
3723  0
3724  0
3725  0
3726  0
3727  0
3728  0
3729  0
3730  0
3731  0
3732  0
3733  0
3734  0
3735  0
3736  0
3737  0
3738  0
3739  0
3740  0
3741  0
3742  0
3743  0
3744  0
3745  0
3746  0
3747  0
3748  0
3749  0
3750  0
3751  0
3752  0
3753  0
3754  0
3755  0
3756  0
3757  0
3758  0
3759  0
3760  0
3761  0
3762  0
3763  0
3764  0
3765  0
3766  0
3767  0
3768  0
3769  0
3770  0
3771  0
3772  0
3773  0
3774  0
3775  0
3776  0
3777  0
3778  0
3779  0
3780  0
3781  0
3782  0
3783  0
3784  0
3785  0
3786  0
3787  0
3788  0
3789  0
3790  0
3791  0
3792  0
3793  0
3794  0
3795  0
3796  0
3797  0
3798  0
3799  0
3800  0
3801  0
3802  0
3803  0
3804  0
3805  0
3806  0
3807  0
3808  0
3809  0
3810  0
3811  0
3812  0
3813  0
3814  0
3815  0
3816  0
3817  0
3818  0
3819  0
3820  0
3821  0
3822  0
3823  0
3824  0
3825  0
3826  0
3827  0
3828  0
3829  0
3830  0
3831  0
3832  0
3833  0
3834  0
3835  0
3836  0
3837  0
3838  0
3839  0
3840  0
3841  0
3842  0
3843  0
3844  0
3845  0
3846  0
3847  0
3848  0
3849  0
3850  0
3851  0
3852  0
3853  0
3854  0
3855  0
3856  0
3857  0
3858  0
3859  0
3860  0
3861  0
3862  0
3863  0
3864  0
3865  0
3866  0
3867  0
3868  0
3869  0
3870  0
3871  0
3872  0
3873  0
3874  0
3875  0
3876  0
3877  0
3878  0
3879  0
3880  0
3881  0
3882  0
3883  0
3884  0
3885  0
3886  0
3887  0
3888  0
3889  0
3890  0
3891  0
3892  0
3893  0
3894  0
3895  0
3896  0
3897  0
3898  0
3899  0
3900  0
3901  0
3902  0
3903  0
3904  0
3905  0
3906  0
3907  0
3908  0
3909  0
3910  0
3911  0
3912  0
3913  0
3914  0
3915  0
3916  0
3917  0
3918  0
3919  0
3920  0
3921  0
3922  0
3923  0
3924  0
3925  0
3926  0
3927  0
3928  0
3929  0
3930  0
3931  0
3932  0
3933  0
3934  0
3935  0
3936  0
3937  0
3938  0
3939  0
3940  0
3941  0
3942  0
3943  0
3944  0
3945  0
3946  0
3947  0
3948  0
3949  0
3950  0
3951  0
3952  0
3953  0
3954  0
3955  0
3956  0
3957  0
3958  0
3959  0
3960  0
3961  0
3962  0
3963  0
3964  0
3965  0
3966  0
3967  0
3968  0
3969  0
3970  0
3971  0
3972  0
3973  0
3974  0
3975  0
3976  0
3977  0
3978  0
3979  0
3980  0
3981  0
3982  0
3983  0
3984  0
3985  0
3986  0
3987  0
3988  0
3989  0
3990  0
3991  0
3992  0
3993  0
3994  0
3995  0
3996  0
3997  0
3998  0
3999  0
4000  0
4001  0
4002  0
4003  0
4004  0
4005  0
4006  0
4007  0
4008  0
4009  0
4010  0
4011  0
4012  0
4013  0
4014  0
4015  0
4016  0
4017  0
4018  0
4019  0
4020  0
4021  0
4022  0
4023  0
4024  0
4025  0
4026  0
4027  0
4028  0
4029  0
4030  0
4031  0
4032  0
4033  0
4034  0
4035  0
4036  0
4037  0
4038  0
4039  0
4040  0
4041  0
4042  0
4043  0
4044  0
4045  0
4046  0
4047  0
4048  0
4049  0
4050  0
4051  0
4052  0
4053  0
4054  0
4055  0
4056  0
4057  0
4058  0
4059  0
4060  0
4061  0
4062  0
4063  0
4064  0
4065  0
4066  0
4067  0
4068  0
4069  0
4070  0
4071  0
4072  0
4073  0
4074  0
4075  0
4076  0
4077  0
4078  0
4079  0
4080  0
4081  0
4082  0
4083  0
4084  0
4085  0
4086  0
4087  0
4088  0
4089  0
4090  0
4091  0
4092  0
4093  0
4094  0
4095  0
