0  0
1  2
2  2
3  0
4  1
5  0
6  2
7  0
8  0
9  0
10  2
11  0
12  1
13  0
14  2
15  0
16  1
17  0
18  4
19  5
20  0
21  3
22  1
23  0
24  1
25  0
26  4
27  1
28  4
29  1
30  0
31  2
32  3
33  3
34  2
35  4
36  2
37  2
38  0
39  3
40  1
41  0
42  0
43  1
44  2
45  1
46  1
47  3
48  5
49  2
50  6
51  4
52  3
53  3
54  5
55  5
56  4
57  1
58  2
59  2
60  2
61  3
62  5
63  2
64  4
65  6
66  2
67  4
68  2
69  5
70  4
71  7
72  4
73  3
74  7
75  3
76  6
77  6
78  4
79  2
80  5
81  5
82  6
83  3
84  7
85  9
86  5
87  4
88  4
89  3
90  6
91  7
92  7
93  4
94  3
95  12
96  9
97  6
98  9
99  3
100  9
101  7
102  4
103  7
104  11
105  10
106  11
107  6
108  8
109  4
110  7
111  13
112  10
113  8
114  7
115  12
116  7
117  9
118  8
119  6
120  12
121  11
122  11
123  8
124  10
125  14
126  11
127  11
128  8
129  5
130  13
131  10
132  10
133  21
134  4
135  14
136  18
137  16
138  16
139  12
140  16
141  16
142  16
143  21
144  15
145  19
146  20
147  29
148  24
149  22
150  39
151  31
152  35
153  32
154  33
155  34
156  49
157  54
158  65
159  75
160  67
161  78
162  122
163  115
164  168
165  240
166  367
167  505
168  710
169  906
170  1045
171  1257
172  1408
173  1621
174  1716
175  1867
176  1851
177  1918
178  1765
179  1785
180  1878
181  1822
182  1736
183  1855
184  1799
185  1703
186  1755
187  1695
188  1735
189  1705
190  1748
191  1837
192  1849
193  1842
194  1918
195  2070
196  2059
197  2065
198  2104
199  2179
200  2171
201  2151
202  2181
203  2114
204  2135
205  2169
206  2024
207  2036
208  2034
209  2049
210  1890
211  2016
212  2022
213  2028
214  1931
215  2055
216  1994
217  1879
218  1889
219  1907
220  1924
221  1842
222  1781
223  1840
224  1767
225  1751
226  1794
227  1745
228  1698
229  1699
230  1729
231  1660
232  1750
233  1652
234  1657
235  1599
236  1648
237  1637
238  1644
239  1591
240  1607
241  1648
242  1615
243  1634
244  1654
245  1482
246  1590
247  1514
248  1509
249  1477
250  1571
251  1492
252  1488
253  1430
254  1443
255  1337
256  1412
257  1424
258  1475
259  1435
260  1382
261  1394
262  1363
263  1321
264  1378
265  1351
266  1338
267  1299
268  1314
269  1250
270  1323
271  1191
272  1300
273  1311
274  1365
275  1308
276  1371
277  1363
278  1507
279  1398
280  1433
281  1449
282  1478
283  1450
284  1428
285  1399
286  1456
287  1495
288  1515
289  1387
290  1407
291  1432
292  1419
293  1410
294  1380
295  1369
296  1423
297  1333
298  1384
299  1341
300  1319
301  1411
302  1375
303  1380
304  1358
305  1407
306  1327
307  1356
308  1347
309  1298
310  1382
311  1307
312  1309
313  1367
314  1374
315  1260
316  1319
317  1316
318  1285
319  1401
320  1189
321  1334
322  1291
323  1238
324  1367
325  1348
326  1210
327  1328
328  1308
329  1299
330  1253
331  1325
332  1302
333  1401
334  1333
335  1380
336  1395
337  1356
338  1351
339  1381
340  1387
341  1397
342  1338
343  1358
344  1362
345  1316
346  1302
347  1327
348  1380
349  1281
350  1351
351  1267
352  1363
353  1409
354  1328
355  1234
356  1337
357  1256
358  1262
359  1253
360  1200
361  1268
362  1206
363  1269
364  1256
365  1329
366  1258
367  1203
368  1282
369  1299
370  1239
371  1236
372  1245
373  1233
374  1256
375  1254
376  1290
377  1146
378  1214
379  1180
380  1165
381  1194
382  1171
383  1161
384  1177
385  1177
386  1173
387  1138
388  1182
389  1130
390  1182
391  1090
392  1159
393  1159
394  1136
395  1109
396  1150
397  1106
398  1142
399  1127
400  1114
401  1101
402  1050
403  1073
404  1068
405  1110
406  1043
407  1122
408  1061
409  1017
410  1065
411  1074
412  1090
413  1062
414  1075
415  1006
416  1012
417  1042
418  1048
419  1060
420  972
421  1002
422  1026
423  986
424  984
425  998
426  987
427  974
428  946
429  969
430  978
431  903
432  982
433  925
434  976
435  870
436  926
437  896
438  905
439  905
440  941
441  913
442  913
443  856
444  917
445  896
446  878
447  879
448  837
449  932
450  897
451  893
452  856
453  851
454  867
455  891
456  819
457  847
458  819
459  836
460  830
461  823
462  821
463  877
464  855
465  874
466  831
467  831
468  802
469  805
470  841
471  849
472  750
473  824
474  755
475  809
476  796
477  811
478  779
479  794
480  798
481  781
482  816
483  752
484  806
485  787
486  790
487  782
488  767
489  749
490  741
491  751
492  768
493  764
494  776
495  769
496  728
497  763
498  751
499  700
500  813
501  753
502  749
503  769
504  755
505  762
506  695
507  777
508  746
509  725
510  743
511  722
512  688
513  717
514  705
515  769
516  709
517  767
518  726
519  749
520  719
521  714
522  730
523  703
524  711
525  699
526  665
527  707
528  714
529  748
530  751
531  705
532  717
533  687
534  742
535  739
536  670
537  720
538  692
539  733
540  718
541  668
542  708
543  694
544  610
545  683
546  673
547  657
548  651
549  734
550  712
551  736
552  676
553  682
554  661
555  674
556  700
557  675
558  649
559  669
560  653
561  731
562  671
563  702
564  599
565  639
566  654
567  692
568  676
569  615
570  721
571  654
572  626
573  667
574  678
575  678
576  654
577  661
578  661
579  652
580  681
581  649
582  650
583  642
584  691
585  694
586  646
587  688
588  644
589  654
590  624
591  631
592  646
593  629
594  689
595  687
596  630
597  666
598  660
599  626
600  660
601  646
602  612
603  630
604  649
605  634
606  622
607  673
608  610
609  608
610  663
611  677
612  650
613  639
614  692
615  618
616  586
617  679
618  643
619  637
620  680
621  667
622  653
623  625
624  655
625  652
626  659
627  660
628  663
629  645
630  634
631  632
632  668
633  672
634  628
635  641
636  646
637  626
638  613
639  653
640  624
641  641
642  610
643  626
644  617
645  631
646  630
647  613
648  623
649  581
650  603
651  614
652  617
653  597
654  615
655  620
656  618
657  605
658  590
659  583
660  571
661  591
662  573
663  560
664  562
665  574
666  584
667  551
668  573
669  551
670  540
671  569
672  574
673  553
674  560
675  537
676  530
677  541
678  542
679  545
680  544
681  516
682  517
683  533
684  527
685  507
686  537
687  509
688  509
689  490
690  503
691  472
692  486
693  516
694  506
695  458
696  442
697  479
698  453
699  482
700  442
701  433
702  438
703  469
704  449
705  487
706  455
707  435
708  442
709  462
710  418
711  448
712  472
713  449
714  440
715  420
716  407
717  433
718  423
719  448
720  398
721  442
722  467
723  440
724  407
725  408
726  404
727  404
728  419
729  408
730  410
731  390
732  444
733  429
734  375
735  362
736  391
737  390
738  408
739  376
740  393
741  347
742  403
743  350
744  373
745  369
746  325
747  365
748  392
749  345
750  368
751  346
752  354
753  342
754  343
755  358
756  322
757  385
758  354
759  341
760  312
761  332
762  320
763  321
764  337
765  313
766  300
767  313
768  285
769  321
770  332
771  308
772  316
773  300
774  291
775  297
776  308
777  243
778  318
779  266
780  285
781  287
782  282
783  292
784  247
785  283
786  273
787  294
788  266
789  286
790  310
791  286
792  253
793  266
794  260
795  246
796  271
797  256
798  287
799  245
800  259
801  317
802  220
803  272
804  266
805  267
806  251
807  263
808  271
809  234
810  257
811  238
812  270
813  267
814  252
815  239
816  280
817  233
818  250
819  272
820  237
821  223
822  234
823  241
824  270
825  248
826  219
827  256
828  234
829  219
830  221
831  227
832  243
833  279
834  208
835  236
836  232
837  220
838  218
839  260
840  229
841  212
842  242
843  217
844  223
845  239
846  219
847  217
848  206
849  220
850  212
851  211
852  208
853  232
854  217
855  220
856  187
857  246
858  223
859  237
860  238
861  258
862  211
863  224
864  208
865  199
866  222
867  197
868  209
869  218
870  196
871  211
872  224
873  218
874  211
875  206
876  212
877  223
878  195
879  190
880  220
881  212
882  216
883  208
884  227
885  222
886  222
887  236
888  190
889  181
890  196
891  204
892  212
893  213
894  216
895  197
896  216
897  191
898  206
899  224
900  181
901  184
902  199
903  204
904  203
905  208
906  188
907  185
908  198
909  196
910  192
911  186
912  219
913  206
914  236
915  170
916  207
917  191
918  196
919  193
920  195
921  205
922  183
923  203
924  175
925  187
926  202
927  166
928  225
929  181
930  182
931  188
932  197
933  207
934  175
935  196
936  195
937  191
938  196
939  194
940  200
941  185
942  207
943  195
944  196
945  185
946  190
947  182
948  170
949  198
950  177
951  159
952  195
953  184
954  192
955  167
956  170
957  173
958  196
959  218
960  190
961  182
962  197
963  173
964  187
965  173
966  184
967  183
968  152
969  159
970  193
971  176
972  172
973  177
974  178
975  169
976  168
977  155
978  183
979  181
980  156
981  192
982  160
983  181
984  178
985  167
986  173
987  186
988  160
989  188
990  159
991  199
992  186
993  191
994  201
995  186
996  186
997  192
998  174
999  152
1000  183
1001  160
1002  164
1003  175
1004  179
1005  157
1006  166
1007  186
1008  194
1009  177
1010  178
1011  164
1012  153
1013  163
1014  171
1015  189
1016  190
1017  164
1018  159
1019  177
1020  181
1021  170
1022  165
1023  150
1024  176
1025  159
1026  174
1027  151
1028  169
1029  177
1030  177
1031  178
1032  159
1033  150
1034  159
1035  176
1036  175
1037  153
1038  169
1039  159
1040  168
1041  159
1042  157
1043  145
1044  165
1045  173
1046  163
1047  142
1048  159
1049  156
1050  161
1051  167
1052  169
1053  168
1054  168
1055  173
1056  155
1057  173
1058  163
1059  148
1060  147
1061  184
1062  156
1063  175
1064  157
1065  160
1066  167
1067  155
1068  172
1069  174
1070  133
1071  169
1072  158
1073  180
1074  160
1075  139
1076  155
1077  144
1078  171
1079  136
1080  164
1081  150
1082  151
1083  153
1084  140
1085  146
1086  146
1087  150
1088  134
1089  147
1090  146
1091  130
1092  151
1093  148
1094  166
1095  129
1096  143
1097  157
1098  148
1099  147
1100  136
1101  178
1102  156
1103  138
1104  132
1105  152
1106  116
1107  147
1108  135
1109  155
1110  157
1111  149
1112  169
1113  151
1114  172
1115  165
1116  159
1117  191
1118  151
1119  159
1120  143
1121  159
1122  142
1123  163
1124  131
1125  150
1126  157
1127  162
1128  151
1129  153
1130  139
1131  156
1132  143
1133  147
1134  135
1135  156
1136  143
1137  158
1138  152
1139  135
1140  123
1141  149
1142  136
1143  145
1144  133
1145  146
1146  177
1147  145
1148  135
1149  164
1150  148
1151  138
1152  147
1153  136
1154  171
1155  159
1156  150
1157  148
1158  149
1159  141
1160  149
1161  131
1162  118
1163  131
1164  127
1165  153
1166  141
1167  148
1168  122
1169  128
1170  110
1171  152
1172  137
1173  134
1174  146
1175  151
1176  137
1177  164
1178  127
1179  149
1180  143
1181  142
1182  135
1183  148
1184  144
1185  135
1186  125
1187  136
1188  132
1189  137
1190  137
1191  130
1192  130
1193  135
1194  136
1195  144
1196  131
1197  141
1198  155
1199  126
1200  135
1201  129
1202  113
1203  128
1204  122
1205  139
1206  125
1207  130
1208  141
1209  121
1210  145
1211  136
1212  123
1213  161
1214  113
1215  132
1216  126
1217  126
1218  136
1219  147
1220  127
1221  151
1222  149
1223  140
1224  135
1225  136
1226  121
1227  145
1228  128
1229  123
1230  151
1231  118
1232  131
1233  118
1234  130
1235  137
1236  115
1237  128
1238  111
1239  109
1240  131
1241  106
1242  130
1243  106
1244  132
1245  106
1246  119
1247  131
1248  140
1249  117
1250  120
1251  124
1252  103
1253  117
1254  132
1255  138
1256  155
1257  115
1258  124
1259  116
1260  129
1261  145
1262  118
1263  133
1264  119
1265  105
1266  130
1267  111
1268  128
1269  100
1270  121
1271  118
1272  109
1273  137
1274  117
1275  114
1276  136
1277  106
1278  93
1279  112
1280  107
1281  98
1282  143
1283  96
1284  127
1285  100
1286  119
1287  108
1288  122
1289  108
1290  127
1291  96
1292  120
1293  113
1294  109
1295  119
1296  110
1297  118
1298  100
1299  135
1300  125
1301  111
1302  98
1303  93
1304  108
1305  109
1306  100
1307  108
1308  90
1309  114
1310  107
1311  103
1312  134
1313  97
1314  105
1315  104
1316  102
1317  91
1318  108
1319  107
1320  84
1321  112
1322  117
1323  108
1324  106
1325  115
1326  95
1327  78
1328  86
1329  115
1330  109
1331  87
1332  101
1333  127
1334  112
1335  98
1336  106
1337  109
1338  99
1339  90
1340  106
1341  101
1342  83
1343  90
1344  102
1345  104
1346  92
1347  114
1348  111
1349  107
1350  122
1351  90
1352  105
1353  118
1354  106
1355  90
1356  95
1357  83
1358  98
1359  88
1360  107
1361  79
1362  102
1363  88
1364  84
1365  75
1366  95
1367  79
1368  93
1369  112
1370  96
1371  94
1372  99
1373  84
1374  83
1375  95
1376  91
1377  83
1378  72
1379  108
1380  99
1381  80
1382  96
1383  95
1384  119
1385  93
1386  79
1387  79
1388  80
1389  72
1390  103
1391  89
1392  94
1393  77
1394  98
1395  90
1396  105
1397  97
1398  99
1399  98
1400  82
1401  78
1402  91
1403  113
1404  89
1405  98
1406  93
1407  72
1408  87
1409  96
1410  91
1411  99
1412  95
1413  75
1414  87
1415  85
1416  69
1417  84
1418  79
1419  86
1420  87
1421  77
1422  77
1423  85
1424  73
1425  75
1426  61
1427  85
1428  76
1429  80
1430  77
1431  72
1432  79
1433  84
1434  52
1435  85
1436  75
1437  72
1438  85
1439  71
1440  85
1441  74
1442  93
1443  70
1444  70
1445  75
1446  81
1447  79
1448  76
1449  70
1450  78
1451  70
1452  65
1453  80
1454  85
1455  89
1456  79
1457  86
1458  79
1459  80
1460  68
1461  68
1462  63
1463  66
1464  72
1465  77
1466  61
1467  75
1468  74
1469  68
1470  87
1471  70
1472  76
1473  84
1474  90
1475  65
1476  56
1477  67
1478  64
1479  69
1480  71
1481  75
1482  76
1483  76
1484  74
1485  68
1486  62
1487  68
1488  70
1489  69
1490  77
1491  65
1492  68
1493  57
1494  69
1495  71
1496  75
1497  74
1498  74
1499  70
1500  67
1501  65
1502  65
1503  74
1504  65
1505  63
1506  59
1507  62
1508  72
1509  68
1510  72
1511  80
1512  65
1513  66
1514  59
1515  70
1516  73
1517  70
1518  75
1519  57
1520  67
1521  56
1522  64
1523  73
1524  66
1525  81
1526  81
1527  75
1528  71
1529  77
1530  74
1531  55
1532  62
1533  67
1534  66
1535  77
1536  75
1537  70
1538  65
1539  61
1540  63
1541  52
1542  67
1543  76
1544  57
1545  56
1546  62
1547  72
1548  73
1549  61
1550  51
1551  64
1552  77
1553  69
1554  50
1555  66
1556  73
1557  54
1558  66
1559  68
1560  64
1561  67
1562  68
1563  49
1564  78
1565  61
1566  70
1567  52
1568  57
1569  54
1570  61
1571  76
1572  48
1573  49
1574  70
1575  65
1576  64
1577  57
1578  58
1579  55
1580  53
1581  59
1582  63
1583  60
1584  58
1585  52
1586  52
1587  68
1588  64
1589  51
1590  43
1591  72
1592  55
1593  61
1594  43
1595  57
1596  65
1597  67
1598  54
1599  56
1600  51
1601  50
1602  56
1603  70
1604  56
1605  68
1606  50
1607  66
1608  50
1609  47
1610  55
1611  55
1612  53
1613  50
1614  57
1615  56
1616  53
1617  47
1618  47
1619  63
1620  48
1621  59
1622  47
1623  45
1624  56
1625  56
1626  42
1627  43
1628  49
1629  44
1630  50
1631  52
1632  51
1633  62
1634  69
1635  65
1636  39
1637  37
1638  58
1639  48
1640  48
1641  52
1642  55
1643  48
1644  42
1645  57
1646  39
1647  43
1648  57
1649  39
1650  47
1651  40
1652  44
1653  42
1654  48
1655  54
1656  47
1657  46
1658  43
1659  45
1660  36
1661  60
1662  52
1663  47
1664  60
1665  49
1666  45
1667  42
1668  48
1669  46
1670  42
1671  38
1672  50
1673  50
1674  52
1675  51
1676  50
1677  44
1678  50
1679  44
1680  41
1681  57
1682  41
1683  38
1684  47
1685  46
1686  38
1687  35
1688  57
1689  44
1690  38
1691  46
1692  48
1693  40
1694  54
1695  47
1696  41
1697  35
1698  41
1699  58
1700  48
1701  48
1702  39
1703  51
1704  57
1705  32
1706  37
1707  51
1708  36
1709  43
1710  48
1711  44
1712  38
1713  46
1714  52
1715  36
1716  45
1717  50
1718  29
1719  61
1720  38
1721  35
1722  40
1723  47
1724  32
1725  43
1726  48
1727  39
1728  42
1729  45
1730  38
1731  40
1732  40
1733  55
1734  50
1735  32
1736  32
1737  36
1738  31
1739  25
1740  43
1741  42
1742  44
1743  41
1744  36
1745  35
1746  43
1747  32
1748  30
1749  37
1750  34
1751  51
1752  33
1753  28
1754  43
1755  34
1756  33
1757  42
1758  35
1759  32
1760  28
1761  41
1762  38
1763  38
1764  45
1765  33
1766  43
1767  39
1768  31
1769  37
1770  36
1771  38
1772  38
1773  43
1774  43
1775  35
1776  33
1777  32
1778  45
1779  44
1780  35
1781  39
1782  30
1783  28
1784  38
1785  31
1786  42
1787  24
1788  34
1789  44
1790  36
1791  28
1792  36
1793  36
1794  40
1795  42
1796  35
1797  40
1798  29
1799  29
1800  40
1801  29
1802  35
1803  37
1804  38
1805  42
1806  34
1807  37
1808  32
1809  32
1810  35
1811  38
1812  37
1813  39
1814  37
1815  31
1816  34
1817  27
1818  29
1819  33
1820  26
1821  35
1822  23
1823  25
1824  26
1825  34
1826  39
1827  33
1828  28
1829  32
1830  40
1831  35
1832  41
1833  29
1834  30
1835  45
1836  38
1837  34
1838  26
1839  36
1840  28
1841  32
1842  32
1843  30
1844  30
1845  22
1846  29
1847  26
1848  32
1849  27
1850  34
1851  32
1852  31
1853  33
1854  30
1855  29
1856  32
1857  24
1858  31
1859  22
1860  39
1861  30
1862  35
1863  29
1864  30
1865  23
1866  31
1867  20
1868  30
1869  25
1870  41
1871  23
1872  31
1873  28
1874  36
1875  27
1876  31
1877  32
1878  24
1879  19
1880  23
1881  26
1882  30
1883  29
1884  30
1885  27
1886  20
1887  29
1888  23
1889  32
1890  22
1891  29
1892  19
1893  32
1894  28
1895  22
1896  23
1897  31
1898  25
1899  27
1900  26
1901  30
1902  14
1903  28
1904  23
1905  22
1906  29
1907  31
1908  32
1909  20
1910  22
1911  20
1912  31
1913  26
1914  28
1915  34
1916  26
1917  21
1918  27
1919  18
1920  19
1921  15
1922  22
1923  32
1924  35
1925  22
1926  26
1927  25
1928  18
1929  22
1930  20
1931  27
1932  21
1933  17
1934  27
1935  18
1936  26
1937  30
1938  27
1939  25
1940  25
1941  28
1942  25
1943  19
1944  20
1945  26
1946  14
1947  25
1948  27
1949  20
1950  23
1951  25
1952  29
1953  17
1954  21
1955  21
1956  21
1957  25
1958  22
1959  27
1960  26
1961  18
1962  14
1963  13
1964  23
1965  13
1966  21
1967  19
1968  23
1969  32
1970  23
1971  28
1972  24
1973  16
1974  17
1975  25
1976  24
1977  18
1978  25
1979  27
1980  16
1981  20
1982  24
1983  19
1984  29
1985  28
1986  22
1987  20
1988  29
1989  12
1990  25
1991  18
1992  23
1993  24
1994  24
1995  19
1996  16
1997  20
1998  27
1999  17
2000  14
2001  26
2002  20
2003  19
2004  13
2005  24
2006  19
2007  12
2008  23
2009  17
2010  14
2011  24
2012  19
2013  18
2014  15
2015  14
2016  14
2017  14
2018  21
2019  25
2020  26
2021  17
2022  17
2023  12
2024  20
2025  15
2026  24
2027  19
2028  26
2029  18
2030  18
2031  16
2032  22
2033  11
2034  13
2035  14
2036  17
2037  24
2038  14
2039  19
2040  15
2041  15
2042  20
2043  17
2044  17
2045  14
2046  17
2047  17
2048  13
2049  14
2050  19
2051  13
2052  13
2053  19
2054  14
2055  22
2056  15
2057  18
2058  11
2059  10
2060  11
2061  20
2062  11
2063  17
2064  24
2065  16
2066  12
2067  21
2068  11
2069  20
2070  12
2071  17
2072  19
2073  12
2074  7
2075  21
2076  20
2077  12
2078  16
2079  17
2080  15
2081  9
2082  13
2083  20
2084  17
2085  12
2086  13
2087  8
2088  17
2089  26
2090  20
2091  12
2092  16
2093  17
2094  15
2095  10
2096  15
2097  15
2098  16
2099  15
2100  11
2101  14
2102  27
2103  21
2104  16
2105  17
2106  15
2107  23
2108  18
2109  11
2110  17
2111  16
2112  12
2113  11
2114  12
2115  21
2116  18
2117  9
2118  13
2119  13
2120  13
2121  10
2122  10
2123  14
2124  13
2125  23
2126  17
2127  12
2128  16
2129  16
2130  13
2131  13
2132  12
2133  16
2134  19
2135  10
2136  21
2137  11
2138  15
2139  15
2140  15
2141  14
2142  9
2143  14
2144  20
2145  18
2146  14
2147  5
2148  13
2149  14
2150  14
2151  16
2152  18
2153  8
2154  6
2155  14
2156  13
2157  10
2158  6
2159  11
2160  14
2161  12
2162  22
2163  9
2164  13
2165  14
2166  14
2167  18
2168  12
2169  12
2170  13
2171  15
2172  12
2173  17
2174  8
2175  14
2176  12
2177  11
2178  16
2179  12
2180  9
2181  12
2182  14
2183  18
2184  9
2185  11
2186  15
2187  11
2188  12
2189  12
2190  15
2191  20
2192  13
2193  5
2194  5
2195  25
2196  11
2197  15
2198  7
2199  13
2200  4
2201  19
2202  13
2203  12
2204  7
2205  11
2206  14
2207  6
2208  11
2209  10
2210  17
2211  15
2212  12
2213  7
2214  14
2215  11
2216  15
2217  16
2218  7
2219  6
2220  12
2221  8
2222  12
2223  9
2224  9
2225  7
2226  8
2227  16
2228  8
2229  11
2230  11
2231  16
2232  12
2233  6
2234  9
2235  11
2236  13
2237  11
2238  13
2239  9
2240  13
2241  7
2242  7
2243  10
2244  7
2245  7
2246  20
2247  8
2248  12
2249  10
2250  10
2251  9
2252  9
2253  7
2254  9
2255  15
2256  12
2257  10
2258  15
2259  10
2260  6
2261  14
2262  11
2263  8
2264  7
2265  8
2266  10
2267  14
2268  13
2269  7
2270  11
2271  13
2272  8
2273  12
2274  14
2275  12
2276  8
2277  8
2278  10
2279  11
2280  9
2281  10
2282  7
2283  15
2284  13
2285  8
2286  10
2287  8
2288  7
2289  3
2290  7
2291  12
2292  11
2293  15
2294  5
2295  8
2296  6
2297  10
2298  7
2299  7
2300  10
2301  13
2302  4
2303  9
2304  7
2305  11
2306  13
2307  6
2308  8
2309  7
2310  6
2311  4
2312  11
2313  8
2314  13
2315  6
2316  6
2317  11
2318  11
2319  10
2320  8
2321  10
2322  8
2323  4
2324  9
2325  7
2326  8
2327  8
2328  7
2329  6
2330  11
2331  7
2332  8
2333  11
2334  5
2335  5
2336  6
2337  8
2338  8
2339  13
2340  11
2341  5
2342  6
2343  3
2344  7
2345  6
2346  5
2347  5
2348  6
2349  6
2350  8
2351  10
2352  5
2353  8
2354  9
2355  5
2356  3
2357  10
2358  8
2359  3
2360  3
2361  11
2362  6
2363  6
2364  6
2365  8
2366  8
2367  8
2368  6
2369  11
2370  9
2371  4
2372  8
2373  8
2374  5
2375  7
2376  5
2377  4
2378  9
2379  6
2380  7
2381  7
2382  4
2383  4
2384  8
2385  7
2386  5
2387  7
2388  10
2389  6
2390  11
2391  8
2392  5
2393  9
2394  9
2395  3
2396  10
2397  0
2398  4
2399  9
2400  4
2401  5
2402  4
2403  8
2404  9
2405  6
2406  3
2407  6
2408  7
2409  9
2410  3
2411  11
2412  2
2413  1
2414  3
2415  7
2416  1
2417  9
2418  8
2419  3
2420  13
2421  10
2422  5
2423  6
2424  6
2425  11
2426  6
2427  8
2428  8
2429  5
2430  7
2431  4
2432  6
2433  7
2434  8
2435  10
2436  6
2437  5
2438  3
2439  6
2440  8
2441  5
2442  8
2443  4
2444  6
2445  7
2446  5
2447  5
2448  8
2449  8
2450  1
2451  6
2452  6
2453  8
2454  7
2455  6
2456  9
2457  5
2458  7
2459  4
2460  1
2461  2
2462  3
2463  7
2464  8
2465  7
2466  4
2467  4
2468  6
2469  6
2470  9
2471  4
2472  3
2473  3
2474  4
2475  5
2476  10
2477  4
2478  3
2479  3
2480  6
2481  6
2482  7
2483  7
2484  7
2485  3
2486  2
2487  1
2488  3
2489  9
2490  9
2491  4
2492  3
2493  5
2494  6
2495  7
2496  9
2497  2
2498  6
2499  5
2500  5
2501  1
2502  4
2503  7
2504  5
2505  7
2506  3
2507  3
2508  5
2509  6
2510  7
2511  8
2512  7
2513  3
2514  3
2515  7
2516  2
2517  9
2518  7
2519  3
2520  3
2521  1
2522  2
2523  8
2524  6
2525  3
2526  1
2527  6
2528  4
2529  2
2530  2
2531  5
2532  6
2533  6
2534  3
2535  4
2536  0
2537  3
2538  1
2539  5
2540  4
2541  4
2542  7
2543  3
2544  2
2545  6
2546  0
2547  5
2548  0
2549  1
2550  1
2551  3
2552  2
2553  2
2554  4
2555  1
2556  4
2557  4
2558  5
2559  9
2560  3
2561  2
2562  4
2563  2
2564  1
2565  8
2566  3
2567  3
2568  4
2569  3
2570  1
2571  3
2572  2
2573  5
2574  1
2575  5
2576  4
2577  5
2578  3
2579  4
2580  3
2581  2
2582  2
2583  1
2584  2
2585  5
2586  1
2587  3
2588  1
2589  1
2590  2
2591  7
2592  2
2593  5
2594  4
2595  4
2596  1
2597  4
2598  2
2599  3
2600  1
2601  3
2602  3
2603  0
2604  3
2605  4
2606  2
2607  3
2608  3
2609  2
2610  5
2611  2
2612  4
2613  4
2614  1
2615  5
2616  2
2617  4
2618  3
2619  3
2620  1
2621  8
2622  2
2623  2
2624  4
2625  5
2626  3
2627  4
2628  4
2629  1
2630  4
2631  3
2632  5
2633  4
2634  2
2635  2
2636  3
2637  4
2638  2
2639  2
2640  0
2641  3
2642  6
2643  3
2644  3
2645  5
2646  7
2647  6
2648  2
2649  3
2650  2
2651  2
2652  4
2653  7
2654  2
2655  3
2656  0
2657  1
2658  1
2659  4
2660  5
2661  1
2662  1
2663  3
2664  3
2665  1
2666  5
2667  0
2668  0
2669  2
2670  4
2671  4
2672  3
2673  1
2674  1
2675  0
2676  2
2677  4
2678  3
2679  4
2680  0
2681  1
2682  2
2683  1
2684  3
2685  4
2686  1
2687  1
2688  5
2689  5
2690  1
2691  2
2692  2
2693  1
2694  0
2695  1
2696  2
2697  4
2698  2
2699  4
2700  1
2701  1
2702  3
2703  4
2704  1
2705  1
2706  7
2707  0
2708  3
2709  5
2710  0
2711  3
2712  5
2713  2
2714  4
2715  2
2716  2
2717  1
2718  2
2719  2
2720  2
2721  2
2722  4
2723  2
2724  3
2725  0
2726  2
2727  0
2728  3
2729  2
2730  3
2731  3
2732  2
2733  0
2734  1
2735  1
2736  4
2737  0
2738  0
2739  2
2740  5
2741  3
2742  4
2743  0
2744  1
2745  1
2746  1
2747  2
2748  1
2749  2
2750  2
2751  3
2752  1
2753  2
2754  0
2755  4
2756  2
2757  3
2758  1
2759  2
2760  2
2761  2
2762  1
2763  4
2764  3
2765  1
2766  1
2767  3
2768  4
2769  1
2770  2
2771  2
2772  0
2773  1
2774  2
2775  3
2776  2
2777  0
2778  1
2779  1
2780  3
2781  2
2782  1
2783  2
2784  1
2785  2
2786  0
2787  2
2788  2
2789  0
2790  2
2791  0
2792  0
2793  1
2794  0
2795  0
2796  1
2797  1
2798  4
2799  2
2800  3
2801  1
2802  1
2803  3
2804  0
2805  3
2806  1
2807  3
2808  0
2809  1
2810  0
2811  3
2812  0
2813  0
2814  1
2815  3
2816  1
2817  1
2818  1
2819  1
2820  1
2821  1
2822  3
2823  2
2824  0
2825  5
2826  2
2827  0
2828  1
2829  1
2830  1
2831  2
2832  1
2833  0
2834  1
2835  2
2836  3
2837  3
2838  1
2839  1
2840  2
2841  2
2842  2
2843  2
2844  0
2845  1
2846  2
2847  1
2848  0
2849  3
2850  2
2851  2
2852  3
2853  2
2854  3
2855  1
2856  1
2857  1
2858  0
2859  2
2860  3
2861  1
2862  0
2863  0
2864  4
2865  2
2866  0
2867  3
2868  1
2869  1
2870  4
2871  2
2872  1
2873  1
2874  1
2875  2
2876  2
2877  2
2878  2
2879  3
2880  2
2881  2
2882  1
2883  1
2884  1
2885  2
2886  2
2887  2
2888  3
2889  0
2890  1
2891  0
2892  0
2893  0
2894  2
2895  0
2896  1
2897  2
2898  0
2899  1
2900  0
2901  1
2902  2
2903  3
2904  3
2905  2
2906  1
2907  1
2908  5
2909  3
2910  1
2911  1
2912  0
2913  0
2914  0
2915  0
2916  2
2917  1
2918  1
2919  0
2920  0
2921  0
2922  2
2923  3
2924  2
2925  2
2926  1
2927  3
2928  2
2929  1
2930  0
2931  3
2932  2
2933  1
2934  4
2935  0
2936  0
2937  1
2938  1
2939  2
2940  1
2941  0
2942  1
2943  0
2944  0
2945  2
2946  2
2947  1
2948  0
2949  2
2950  1
2951  2
2952  0
2953  1
2954  0
2955  2
2956  0
2957  0
2958  1
2959  0
2960  1
2961  0
2962  2
2963  3
2964  3
2965  0
2966  1
2967  1
2968  1
2969  2
2970  1
2971  1
2972  1
2973  0
2974  2
2975  0
2976  2
2977  2
2978  5
2979  0
2980  1
2981  0
2982  0
2983  1
2984  2
2985  1
2986  0
2987  1
2988  0
2989  1
2990  1
2991  1
2992  1
2993  1
2994  2
2995  0
2996  1
2997  0
2998  3
2999  0
3000  0
3001  0
3002  1
3003  1
3004  1
3005  2
3006  2
3007  1
3008  2
3009  0
3010  0
3011  1
3012  1
3013  2
3014  1
3015  3
3016  2
3017  1
3018  1
3019  1
3020  1
3021  0
3022  1
3023  1
3024  0
3025  0
3026  0
3027  1
3028  0
3029  0
3030  1
3031  2
3032  0
3033  0
3034  0
3035  0
3036  2
3037  0
3038  1
3039  1
3040  1
3041  2
3042  0
3043  1
3044  1
3045  2
3046  0
3047  0
3048  0
3049  2
3050  1
3051  0
3052  2
3053  0
3054  0
3055  2
3056  1
3057  0
3058  1
3059  1
3060  0
3061  4
3062  0
3063  1
3064  0
3065  1
3066  2
3067  2
3068  1
3069  1
3070  1
3071  1
3072  0
3073  1
3074  0
3075  0
3076  2
3077  0
3078  1
3079  1
3080  0
3081  0
3082  1
3083  1
3084  0
3085  0
3086  0
3087  0
3088  1
3089  0
3090  0
3091  0
3092  0
3093  0
3094  1
3095  1
3096  0
3097  2
3098  1
3099  0
3100  0
3101  0
3102  0
3103  0
3104  0
3105  2
3106  2
3107  0
3108  2
3109  0
3110  1
3111  0
3112  0
3113  0
3114  1
3115  1
3116  1
3117  0
3118  1
3119  0
3120  0
3121  0
3122  0
3123  1
3124  0
3125  1
3126  0
3127  0
3128  0
3129  0
3130  0
3131  0
3132  0
3133  0
3134  0
3135  0
3136  0
3137  0
3138  1
3139  1
3140  1
3141  0
3142  0
3143  3
3144  3
3145  2
3146  0
3147  1
3148  0
3149  0
3150  0
3151  2
3152  1
3153  1
3154  0
3155  0
3156  1
3157  2
3158  1
3159  0
3160  0
3161  2
3162  0
3163  0
3164  2
3165  0
3166  2
3167  0
3168  1
3169  1
3170  0
3171  0
3172  2
3173  0
3174  0
3175  0
3176  0
3177  0
3178  1
3179  0
3180  1
3181  0
3182  1
3183  0
3184  1
3185  0
3186  0
3187  0
3188  1
3189  2
3190  2
3191  0
3192  1
3193  0
3194  0
3195  0
3196  0
3197  1
3198  1
3199  0
3200  0
3201  2
3202  0
3203  0
3204  1
3205  0
3206  1
3207  2
3208  1
3209  0
3210  0
3211  0
3212  0
3213  0
3214  0
3215  0
3216  0
3217  1
3218  0
3219  0
3220  0
3221  0
3222  1
3223  0
3224  0
3225  0
3226  0
3227  0
3228  0
3229  0
3230  0
3231  0
3232  1
3233  1
3234  0
3235  1
3236  0
3237  2
3238  0
3239  0
3240  0
3241  0
3242  0
3243  0
3244  0
3245  0
3246  1
3247  0
3248  1
3249  0
3250  0
3251  0
3252  1
3253  1
3254  0
3255  0
3256  0
3257  0
3258  0
3259  1
3260  0
3261  0
3262  0
3263  0
3264  0
3265  0
3266  0
3267  1
3268  0
3269  0
3270  0
3271  0
3272  0
3273  1
3274  0
3275  0
3276  0
3277  0
3278  0
3279  0
3280  1
3281  1
3282  0
3283  0
3284  0
3285  0
3286  0
3287  0
3288  0
3289  0
3290  0
3291  0
3292  0
3293  0
3294  0
3295  0
3296  0
3297  0
3298  1
3299  0
3300  0
3301  0
3302  0
3303  0
3304  0
3305  0
3306  1
3307  0
3308  0
3309  0
3310  0
3311  0
3312  0
3313  0
3314  1
3315  0
3316  0
3317  0
3318  0
3319  1
3320  0
3321  0
3322  0
3323  0
3324  1
3325  0
3326  0
3327  1
3328  0
3329  0
3330  0
3331  0
3332  0
3333  1
3334  0
3335  0
3336  0
3337  1
3338  0
3339  0
3340  0
3341  0
3342  0
3343  1
3344  0
3345  0
3346  0
3347  0
3348  0
3349  0
3350  0
3351  0
3352  0
3353  0
3354  0
3355  1
3356  1
3357  0
3358  0
3359  1
3360  0
3361  0
3362  0
3363  1
3364  0
3365  0
3366  0
3367  0
3368  0
3369  0
3370  0
3371  0
3372  1
3373  0
3374  0
3375  0
3376  0
3377  1
3378  0
3379  0
3380  1
3381  0
3382  1
3383  0
3384  0
3385  0
3386  0
3387  0
3388  0
3389  0
3390  0
3391  0
3392  0
3393  0
3394  0
3395  0
3396  1
3397  0
3398  0
3399  0
3400  0
3401  0
3402  1
3403  0
3404  1
3405  0
3406  1
3407  0
3408  0
3409  0
3410  2
3411  0
3412  0
3413  0
3414  0
3415  0
3416  0
3417  0
3418  0
3419  0
3420  0
3421  0
3422  0
3423  0
3424  0
3425  0
3426  1
3427  2
3428  0
3429  0
3430  0
3431  0
3432  0
3433  0
3434  0
3435  0
3436  0
3437  0
3438  0
3439  0
3440  0
3441  0
3442  0
3443  1
3444  0
3445  0
3446  0
3447  0
3448  0
3449  0
3450  0
3451  0
3452  0
3453  0
3454  0
3455  0
3456  0
3457  0
3458  0
3459  0
3460  1
3461  1
3462  0
3463  0
3464  0
3465  0
3466  1
3467  0
3468  0
3469  0
3470  0
3471  2
3472  1
3473  1
3474  1
3475  1
3476  0
3477  0
3478  0
3479  0
3480  0
3481  0
3482  0
3483  0
3484  1
3485  1
3486  0
3487  1
3488  0
3489  0
3490  0
3491  0
3492  1
3493  1
3494  0
3495  0
3496  1
3497  0
3498  2
3499  2
3500  2
3501  0
3502  0
3503  2
3504  2
3505  0
3506  2
3507  0
3508  2
3509  0
3510  1
3511  2
3512  0
3513  0
3514  0
3515  0
3516  0
3517  0
3518  1
3519  0
3520  0
3521  3
3522  0
3523  1
3524  2
3525  1
3526  0
3527  0
3528  0
3529  0
3530  0
3531  0
3532  0
3533  0
3534  0
3535  0
3536  0
3537  0
3538  0
3539  0
3540  0
3541  0
3542  0
3543  0
3544  0
3545  0
3546  0
3547  0
3548  0
3549  1
3550  0
3551  1
3552  0
3553  0
3554  0
3555  0
3556  0
3557  0
3558  0
3559  0
3560  0
3561  0
3562  0
3563  0
3564  0
3565  0
3566  0
3567  0
3568  0
3569  0
3570  0
3571  0
3572  0
3573  0
3574  0
3575  0
3576  1
3577  0
3578  0
3579  1
3580  0
3581  1
3582  0
3583  0
3584  0
3585  0
3586  0
3587  0
3588  0
3589  1
3590  1
3591  0
3592  1
3593  1
3594  0
3595  0
3596  1
3597  0
3598  1
3599  0
3600  0
3601  0
3602  1
3603  1
3604  0
3605  0
3606  0
3607  0
3608  0
3609  0
3610  0
3611  0
3612  0
3613  0
3614  0
3615  0
3616  0
3617  0
3618  0
3619  0
3620  0
3621  0
3622  0
3623  0
3624  0
3625  0
3626  0
3627  0
3628  0
3629  0
3630  0
3631  0
3632  0
3633  0
3634  0
3635  0
3636  0
3637  0
3638  0
3639  0
3640  0
3641  0
3642  0
3643  0
3644  0
3645  0
3646  0
3647  0
3648  0
3649  0
3650  0
3651  0
3652  0
3653  0
3654  0
3655  0
3656  0
3657  0
3658  0
3659  0
3660  0
3661  0
3662  0
3663  0
3664  0
3665  0
3666  0
3667  0
3668  0
3669  0
3670  0
3671  0
3672  0
3673  0
3674  0
3675  0
3676  0
3677  0
3678  0
3679  0
3680  0
3681  0
3682  0
3683  0
3684  0
3685  0
3686  0
3687  0
3688  0
3689  0
3690  0
3691  0
3692  0
3693  0
3694  0
3695  0
3696  0
3697  0
3698  0
3699  0
3700  0
3701  0
3702  0
3703  0
3704  0
3705  0
3706  0
3707  0
3708  0
3709  0
3710  0
3711  0
3712  0
3713  0
3714  0
3715  0
3716  0
3717  0
3718  0
3719  0
3720  0
3721  0
3722  0
3723  0
3724  0
3725  0
3726  0
3727  0
3728  0
3729  0
3730  0
3731  0
3732  0
3733  0
3734  0
3735  0
3736  0
3737  0
3738  0
3739  0
3740  0
3741  0
3742  0
3743  0
3744  0
3745  0
3746  0
3747  0
3748  0
3749  0
3750  0
3751  0
3752  0
3753  0
3754  0
3755  0
3756  0
3757  0
3758  0
3759  0
3760  0
3761  0
3762  0
3763  0
3764  0
3765  0
3766  0
3767  0
3768  0
3769  0
3770  0
3771  0
3772  0
3773  0
3774  0
3775  0
3776  0
3777  0
3778  0
3779  0
3780  0
3781  0
3782  0
3783  0
3784  0
3785  0
3786  0
3787  0
3788  0
3789  0
3790  0
3791  0
3792  0
3793  0
3794  0
3795  0
3796  0
3797  0
3798  0
3799  0
3800  0
3801  0
3802  0
3803  0
3804  0
3805  0
3806  0
3807  0
3808  0
3809  0
3810  0
3811  0
3812  0
3813  0
3814  0
3815  0
3816  0
3817  0
3818  0
3819  0
3820  0
3821  0
3822  0
3823  0
3824  0
3825  0
3826  0
3827  0
3828  0
3829  0
3830  0
3831  0
3832  0
3833  0
3834  0
3835  0
3836  0
3837  0
3838  0
3839  0
3840  0
3841  0
3842  0
3843  0
3844  0
3845  0
3846  0
3847  0
3848  0
3849  0
3850  0
3851  0
3852  0
3853  0
3854  0
3855  0
3856  0
3857  0
3858  0
3859  0
3860  0
3861  0
3862  0
3863  0
3864  0
3865  0
3866  0
3867  0
3868  0
3869  0
3870  0
3871  0
3872  0
3873  0
3874  0
3875  0
3876  0
3877  0
3878  0
3879  0
3880  0
3881  0
3882  0
3883  0
3884  0
3885  0
3886  0
3887  0
3888  0
3889  0
3890  0
3891  0
3892  0
3893  0
3894  0
3895  0
3896  0
3897  0
3898  0
3899  0
3900  0
3901  0
3902  0
3903  0
3904  0
3905  0
3906  0
3907  0
3908  0
3909  0
3910  0
3911  0
3912  0
3913  0
3914  0
3915  0
3916  0
3917  0
3918  0
3919  0
3920  0
3921  0
3922  0
3923  0
3924  0
3925  0
3926  0
3927  0
3928  0
3929  0
3930  0
3931  0
3932  0
3933  0
3934  0
3935  0
3936  0
3937  0
3938  0
3939  0
3940  0
3941  0
3942  0
3943  0
3944  0
3945  0
3946  0
3947  0
3948  0
3949  0
3950  0
3951  0
3952  0
3953  0
3954  0
3955  0
3956  0
3957  0
3958  0
3959  0
3960  0
3961  0
3962  0
3963  0
3964  0
3965  0
3966  0
3967  0
3968  0
3969  0
3970  0
3971  0
3972  0
3973  0
3974  0
3975  0
3976  0
3977  0
3978  0
3979  0
3980  0
3981  0
3982  0
3983  0
3984  0
3985  0
3986  0
3987  0
3988  0
3989  0
3990  0
3991  0
3992  0
3993  0
3994  0
3995  0
3996  0
3997  0
3998  0
3999  0
4000  0
4001  0
4002  0
4003  0
4004  0
4005  0
4006  0
4007  0
4008  0
4009  0
4010  0
4011  0
4012  0
4013  0
4014  0
4015  0
4016  0
4017  0
4018  0
4019  0
4020  0
4021  0
4022  0
4023  0
4024  0
4025  0
4026  0
4027  0
4028  0
4029  0
4030  0
4031  0
4032  0
4033  0
4034  0
4035  0
4036  0
4037  0
4038  0
4039  0
4040  0
4041  0
4042  0
4043  0
4044  0
4045  0
4046  0
4047  0
4048  0
4049  0
4050  0
4051  0
4052  0
4053  0
4054  0
4055  0
4056  0
4057  0
4058  0
4059  0
4060  0
4061  0
4062  0
4063  0
4064  0
4065  0
4066  0
4067  0
4068  0
4069  0
4070  0
4071  0
4072  0
4073  0
4074  0
4075  0
4076  0
4077  0
4078  0
4079  0
4080  0
4081  0
4082  0
4083  0
4084  0
4085  0
4086  0
4087  0
4088  0
4089  0
4090  0
4091  0
4092  0
4093  0
4094  0
4095  0
