0  0
1  0
2  0
3  0
4  0
5  0
6  0
7  0
8  0
9  0
10  0
11  0
12  0
13  0
14  0
15  0
16  0
17  0
18  0
19  0
20  0
21  0
22  0
23  0
24  0
25  0
26  0
27  0
28  0
29  0
30  0
31  0
32  0
33  0
34  0
35  0
36  0
37  0
38  0
39  0
40  0
41  0
42  0
43  0
44  0
45  0
46  0
47  0
48  0
49  0
50  0
51  0
52  0
53  0
54  0
55  0
56  0
57  0
58  0
59  0
60  0
61  0
62  0
63  0
64  0
65  0
66  0
67  0
68  0
69  0
70  0
71  0
72  0
73  0
74  0
75  0
76  0
77  0
78  0
79  0
80  0
81  0
82  0
83  0
84  0
85  0
86  0
87  0
88  0
89  0
90  0
91  0
92  0
93  0
94  0
95  0
96  0
97  0
98  0
99  0
100  0
101  0
102  0
103  0
104  0
105  0
106  0
107  0
108  0
109  0
110  0
111  0
112  0
113  0
114  0
115  0
116  0
117  0
118  0
119  0
120  0
121  0
122  0
123  0
124  0
125  0
126  0
127  0
128  0
129  0
130  0
131  0
132  0
133  0
134  0
135  0
136  0
137  0
138  0
139  0
140  0
141  0
142  0
143  0
144  0
145  0
146  0
147  0
148  0
149  0
150  0
151  0
152  0
153  0
154  0
155  0
156  0
157  0
158  0
159  0
160  0
161  0
162  0
163  0
164  0
165  0
166  0
167  0
168  0
169  0
170  0
171  0
172  0
173  0
174  0
175  0
176  0
177  0
178  0
179  0
180  0
181  0
182  0
183  0
184  0
185  0
186  0
187  0
188  0
189  0
190  0
191  0
192  0
193  0
194  0
195  0
196  0
197  0
198  0
199  0
200  0
201  0
202  0
203  0
204  0
205  0
206  0
207  0
208  0
209  0
210  0
211  0
212  0
213  0
214  0
215  0
216  0
217  0
218  0
219  0
220  0
221  0
222  0
223  0
224  0
225  0
226  0
227  0
228  0
229  0
230  0
231  0
232  0
233  0
234  0
235  0
236  0
237  0
238  0
239  0
240  0
241  0
242  0
243  0
244  0
245  0
246  0
247  0
248  0
249  0
250  0
251  0
252  0
253  0
254  0
255  0
256  0
257  0
258  0
259  0
260  0
261  0
262  0
263  0
264  0
265  0
266  0
267  0
268  0
269  0
270  0
271  0
272  0
273  0
274  0
275  0
276  0
277  0
278  0
279  0
280  0
281  0
282  0
283  0
284  0
285  0
286  0
287  0
288  0
289  0
290  0
291  0
292  0
293  0
294  0
295  0
296  0
297  0
298  0
299  0
300  0
301  0
302  0
303  0
304  0
305  0
306  0
307  0
308  0
309  0
310  0
311  0
312  0
313  0
314  0
315  0
316  0
317  0
318  0
319  0
320  0
321  0
322  0
323  0
324  0
325  0
326  0
327  0
328  0
329  0
330  0
331  0
332  0
333  0
334  0
335  0
336  0
337  0
338  0
339  0
340  0
341  0
342  0
343  0
344  0
345  0
346  0
347  0
348  0
349  0
350  0
351  0
352  0
353  0
354  0
355  0
356  0
357  0
358  0
359  0
360  0
361  0
362  0
363  0
364  0
365  0
366  0
367  0
368  0
369  0
370  0
371  0
372  0
373  0
374  0
375  0
376  0
377  0
378  0
379  0
380  0
381  0
382  0
383  0
384  0
385  0
386  0
387  0
388  0
389  0
390  0
391  0
392  0
393  0
394  0
395  0
396  0
397  0
398  0
399  0
400  0
401  0
402  0
403  0
404  0
405  0
406  0
407  0
408  0
409  0
410  0
411  0
412  0
413  0
414  0
415  0
416  0
417  0
418  0
419  0
420  0
421  0
422  0
423  0
424  0
425  0
426  0
427  0
428  0
429  0
430  0
431  0
432  0
433  0
434  0
435  0
436  0
437  0
438  0
439  0
440  0
441  0
442  0
443  0
444  0
445  0
446  0
447  0
448  0
449  0
450  0
451  0
452  0
453  0
454  0
455  0
456  0
457  0
458  0
459  0
460  0
461  0
462  0
463  0
464  0
465  0
466  0
467  0
468  0
469  0
470  0
471  0
472  0
473  0
474  0
475  0
476  0
477  0
478  0
479  0
480  0
481  0
482  0
483  0
484  0
485  0
486  0
487  0
488  0
489  0
490  0
491  0
492  0
493  0
494  0
495  0
496  0
497  0
498  0
499  0
500  0
501  0
502  0
503  0
504  0
505  0
506  0
507  0
508  0
509  0
510  0
511  0
512  0
513  0
514  0
515  0
516  0
517  0
518  0
519  0
520  0
521  0
522  0
523  0
524  0
525  0
526  0
527  0
528  0
529  0
530  0
531  0
532  0
533  0
534  0
535  0
536  0
537  0
538  0
539  0
540  0
541  0
542  0
543  0
544  0
545  0
546  0
547  0
548  0
549  0
550  0
551  0
552  0
553  0
554  0
555  0
556  0
557  0
558  0
559  0
560  0
561  0
562  0
563  0
564  0
565  0
566  0
567  0
568  0
569  0
570  0
571  0
572  0
573  0
574  0
575  0
576  0
577  0
578  0
579  0
580  0
581  0
582  0
583  0
584  0
585  0
586  0
587  0
588  0
589  0
590  0
591  0
592  0
593  0
594  0
595  0
596  0
597  0
598  0
599  0
600  0
601  0
602  0
603  0
604  0
605  0
606  0
607  0
608  0
609  0
610  0
611  0
612  0
613  0
614  0
615  0
616  0
617  0
618  0
619  0
620  0
621  0
622  0
623  0
624  0
625  0
626  0
627  0
628  0
629  0
630  0
631  0
632  0
633  0
634  0
635  0
636  0
637  0
638  0
639  0
640  0
641  0
642  0
643  0
644  0
645  0
646  0
647  0
648  0
649  0
650  0
651  0
652  0
653  0
654  0
655  0
656  0
657  0
658  0
659  0
660  0
661  0
662  0
663  0
664  0
665  0
666  0
667  0
668  0
669  0
670  0
671  0
672  0
673  0
674  0
675  0
676  0
677  0
678  0
679  0
680  0
681  0
682  0
683  0
684  0
685  0
686  0
687  0
688  0
689  0
690  0
691  0
692  0
693  0
694  0
695  0
696  0
697  0
698  0
699  0
700  0
701  0
702  0
703  0
704  0
705  0
706  0
707  0
708  0
709  0
710  0
711  0
712  0
713  0
714  0
715  0
716  0
717  0
718  0
719  0
720  0
721  0
722  0
723  0
724  0
725  0
726  0
727  0
728  0
729  0
730  0
731  0
732  0
733  0
734  0
735  0
736  0
737  0
738  0
739  0
740  0
741  0
742  0
743  0
744  0
745  0
746  0
747  0
748  0
749  0
750  0
751  0
752  0
753  0
754  0
755  0
756  0
757  0
758  0
759  0
760  0
761  0
762  0
763  0
764  0
765  0
766  0
767  0
768  0
769  0
770  0
771  0
772  0
773  0
774  0
775  0
776  0
777  0
778  0
779  0
780  0
781  0
782  0
783  0
784  0
785  0
786  0
787  0
788  0
789  0
790  0
791  0
792  0
793  0
794  0
795  0
796  0
797  0
798  0
799  0
800  0
801  0
802  0
803  0
804  0
805  0
806  0
807  0
808  0
809  0
810  0
811  0
812  0
813  0
814  0
815  0
816  0
817  0
818  0
819  0
820  0
821  0
822  0
823  0
824  0
825  0
826  0
827  0
828  0
829  0
830  0
831  0
832  0
833  0
834  0
835  0
836  0
837  0
838  0
839  0
840  0
841  0
842  0
843  0
844  0
845  0
846  0
847  0
848  0
849  0
850  0
851  0
852  0
853  0
854  0
855  0
856  0
857  0
858  0
859  0
860  0
861  0
862  0
863  0
864  0
865  0
866  0
867  0
868  0
869  0
870  0
871  0
872  0
873  0
874  0
875  0
876  0
877  0
878  0
879  0
880  0
881  0
882  0
883  0
884  0
885  0
886  0
887  0
888  0
889  0
890  0
891  0
892  0
893  0
894  0
895  0
896  0
897  0
898  0
899  0
900  0
901  0
902  0
903  0
904  0
905  0
906  0
907  0
908  0
909  0
910  0
911  0
912  0
913  0
914  0
915  0
916  0
917  0
918  0
919  0
920  0
921  0
922  0
923  0
924  0
925  0
926  0
927  0
928  0
929  0
930  0
931  0
932  0
933  0
934  0
935  0
936  0
937  0
938  0
939  0
940  0
941  0
942  0
943  0
944  0
945  0
946  0
947  0
948  0
949  0
950  0
951  0
952  0
953  0
954  0
955  0
956  0
957  0
958  0
959  0
960  0
961  0
962  0
963  0
964  0
965  0
966  0
967  0
968  0
969  0
970  0
971  0
972  0
973  0
974  0
975  0
976  0
977  0
978  0
979  0
980  0
981  0
982  0
983  0
984  0
985  0
986  0
987  0
988  0
989  0
990  0
991  0
992  0
993  0
994  0
995  0
996  0
997  0
998  0
999  0
1000  0
1001  0
1002  0
1003  0
1004  0
1005  0
1006  0
1007  0
1008  0
1009  0
1010  0
1011  0
1012  0
1013  0
1014  0
1015  0
1016  0
1017  0
1018  0
1019  0
1020  0
1021  0
1022  0
1023  0
1024  0
1025  0
1026  0
1027  0
1028  0
1029  0
1030  0
1031  0
1032  0
1033  0
1034  0
1035  0
1036  0
1037  0
1038  0
1039  0
1040  0
1041  0
1042  0
1043  0
1044  0
1045  0
1046  0
1047  0
1048  0
1049  0
1050  0
1051  0
1052  0
1053  0
1054  0
1055  0
1056  0
1057  0
1058  0
1059  0
1060  0
1061  0
1062  0
1063  0
1064  0
1065  0
1066  0
1067  0
1068  0
1069  0
1070  0
1071  0
1072  0
1073  0
1074  0
1075  0
1076  0
1077  0
1078  0
1079  0
1080  0
1081  0
1082  0
1083  0
1084  0
1085  0
1086  0
1087  0
1088  0
1089  0
1090  0
1091  0
1092  0
1093  0
1094  0
1095  0
1096  0
1097  0
1098  0
1099  0
1100  0
1101  0
1102  0
1103  0
1104  0
1105  0
1106  0
1107  0
1108  0
1109  0
1110  0
1111  0
1112  0
1113  0
1114  0
1115  0
1116  0
1117  0
1118  0
1119  0
1120  0
1121  0
1122  0
1123  0
1124  0
1125  0
1126  0
1127  0
1128  0
1129  0
1130  0
1131  0
1132  0
1133  0
1134  0
1135  0
1136  0
1137  0
1138  0
1139  0
1140  0
1141  0
1142  0
1143  0
1144  0
1145  0
1146  0
1147  0
1148  0
1149  0
1150  0
1151  0
1152  0
1153  0
1154  0
1155  0
1156  0
1157  0
1158  0
1159  0
1160  0
1161  0
1162  0
1163  0
1164  0
1165  0
1166  0
1167  0
1168  0
1169  0
1170  0
1171  0
1172  0
1173  0
1174  0
1175  0
1176  0
1177  0
1178  0
1179  0
1180  0
1181  0
1182  0
1183  0
1184  0
1185  0
1186  0
1187  0
1188  0
1189  0
1190  0
1191  0
1192  0
1193  0
1194  0
1195  0
1196  0
1197  0
1198  0
1199  0
1200  0
1201  0
1202  0
1203  0
1204  0
1205  0
1206  0
1207  0
1208  0
1209  0
1210  0
1211  0
1212  0
1213  0
1214  0
1215  0
1216  0
1217  0
1218  0
1219  0
1220  0
1221  0
1222  0
1223  0
1224  0
1225  0
1226  0
1227  0
1228  0
1229  0
1230  0
1231  0
1232  0
1233  0
1234  0
1235  0
1236  0
1237  0
1238  0
1239  0
1240  0
1241  0
1242  0
1243  0
1244  0
1245  0
1246  0
1247  0
1248  0
1249  0
1250  0
1251  0
1252  0
1253  0
1254  0
1255  0
1256  0
1257  0
1258  0
1259  0
1260  0
1261  0
1262  0
1263  0
1264  0
1265  0
1266  0
1267  0
1268  0
1269  0
1270  0
1271  0
1272  0
1273  0
1274  0
1275  0
1276  0
1277  0
1278  0
1279  0
1280  0
1281  0
1282  0
1283  0
1284  0
1285  0
1286  0
1287  0
1288  0
1289  0
1290  0
1291  0
1292  0
1293  0
1294  0
1295  0
1296  0
1297  0
1298  0
1299  0
1300  0
1301  0
1302  0
1303  0
1304  0
1305  0
1306  0
1307  0
1308  0
1309  0
1310  0
1311  0
1312  0
1313  0
1314  0
1315  0
1316  0
1317  0
1318  0
1319  0
1320  0
1321  0
1322  0
1323  0
1324  0
1325  0
1326  0
1327  0
1328  0
1329  0
1330  0
1331  0
1332  0
1333  0
1334  0
1335  0
1336  0
1337  0
1338  0
1339  0
1340  0
1341  0
1342  0
1343  0
1344  0
1345  0
1346  0
1347  0
1348  0
1349  0
1350  0
1351  0
1352  0
1353  0
1354  0
1355  0
1356  0
1357  0
1358  0
1359  0
1360  0
1361  0
1362  0
1363  0
1364  0
1365  0
1366  0
1367  0
1368  0
1369  0
1370  0
1371  0
1372  0
1373  0
1374  0
1375  0
1376  0
1377  0
1378  0
1379  0
1380  0
1381  0
1382  0
1383  0
1384  0
1385  0
1386  0
1387  0
1388  0
1389  0
1390  0
1391  0
1392  0
1393  0
1394  0
1395  0
1396  0
1397  0
1398  0
1399  0
1400  0
1401  0
1402  0
1403  0
1404  0
1405  0
1406  0
1407  0
1408  0
1409  0
1410  0
1411  0
1412  0
1413  0
1414  0
1415  0
1416  0
1417  0
1418  0
1419  0
1420  0
1421  0
1422  0
1423  0
1424  0
1425  0
1426  0
1427  0
1428  0
1429  0
1430  0
1431  0
1432  0
1433  0
1434  0
1435  0
1436  0
1437  0
1438  0
1439  0
1440  0
1441  0
1442  0
1443  0
1444  0
1445  0
1446  0
1447  0
1448  0
1449  0
1450  0
1451  0
1452  0
1453  0
1454  0
1455  0
1456  0
1457  0
1458  0
1459  0
1460  0
1461  0
1462  0
1463  0
1464  0
1465  0
1466  0
1467  0
1468  0
1469  0
1470  0
1471  0
1472  0
1473  0
1474  0
1475  0
1476  0
1477  0
1478  0
1479  0
1480  0
1481  0
1482  0
1483  0
1484  0
1485  0
1486  0
1487  0
1488  0
1489  0
1490  0
1491  0
1492  0
1493  0
1494  0
1495  0
1496  0
1497  0
1498  0
1499  0
1500  0
1501  0
1502  0
1503  0
1504  0
1505  0
1506  0
1507  0
1508  0
1509  0
1510  0
1511  0
1512  0
1513  0
1514  0
1515  0
1516  0
1517  0
1518  0
1519  0
1520  0
1521  0
1522  0
1523  0
1524  0
1525  0
1526  0
1527  0
1528  0
1529  0
1530  0
1531  0
1532  0
1533  0
1534  0
1535  0
1536  0
1537  0
1538  0
1539  0
1540  0
1541  0
1542  0
1543  0
1544  0
1545  0
1546  0
1547  0
1548  0
1549  0
1550  0
1551  0
1552  0
1553  0
1554  0
1555  0
1556  0
1557  0
1558  0
1559  0
1560  0
1561  0
1562  0
1563  0
1564  0
1565  0
1566  0
1567  0
1568  0
1569  0
1570  0
1571  0
1572  0
1573  0
1574  0
1575  0
1576  0
1577  0
1578  0
1579  0
1580  0
1581  0
1582  0
1583  0
1584  0
1585  0
1586  0
1587  0
1588  0
1589  0
1590  0
1591  0
1592  0
1593  0
1594  0
1595  0
1596  0
1597  0
1598  2
1599  7
1600  57
1601  150
1602  437
1603  1061
1604  1610
1605  2102
1606  2466
1607  2362
1608  2307
1609  2357
1610  2240
1611  2220
1612  1974
1613  2024
1614  1935
1615  1901
1616  1867
1617  1747
1618  1715
1619  1603
1620  1573
1621  1496
1622  1381
1623  1361
1624  1347
1625  1300
1626  1213
1627  1199
1628  1197
1629  1054
1630  1089
1631  1027
1632  935
1633  952
1634  870
1635  888
1636  867
1637  775
1638  739
1639  687
1640  759
1641  719
1642  614
1643  628
1644  640
1645  560
1646  560
1647  555
1648  531
1649  495
1650  463
1651  461
1652  497
1653  434
1654  432
1655  422
1656  399
1657  377
1658  384
1659  384
1660  393
1661  348
1662  373
1663  317
1664  333
1665  317
1666  297
1667  265
1668  278
1669  309
1670  282
1671  273
1672  238
1673  259
1674  238
1675  260
1676  206
1677  217
1678  249
1679  206
1680  180
1681  237
1682  198
1683  177
1684  163
1685  168
1686  183
1687  168
1688  160
1689  162
1690  167
1691  164
1692  140
1693  161
1694  146
1695  117
1696  142
1697  148
1698  115
1699  113
1700  135
1701  124
1702  130
1703  123
1704  120
1705  131
1706  85
1707  117
1708  104
1709  89
1710  89
1711  95
1712  103
1713  98
1714  92
1715  94
1716  82
1717  73
1718  91
1719  84
1720  71
1721  91
1722  71
1723  90
1724  55
1725  63
1726  81
1727  57
1728  78
1729  54
1730  56
1731  60
1732  52
1733  55
1734  63
1735  62
1736  63
1737  56
1738  38
1739  49
1740  43
1741  50
1742  44
1743  46
1744  44
1745  44
1746  33
1747  54
1748  59
1749  43
1750  34
1751  47
1752  41
1753  34
1754  40
1755  36
1756  32
1757  32
1758  36
1759  33
1760  30
1761  29
1762  35
1763  30
1764  34
1765  22
1766  20
1767  35
1768  22
1769  28
1770  23
1771  26
1772  21
1773  25
1774  25
1775  17
1776  20
1777  23
1778  23
1779  18
1780  25
1781  23
1782  19
1783  20
1784  24
1785  14
1786  23
1787  17
1788  24
1789  20
1790  18
1791  12
1792  15
1793  21
1794  14
1795  17
1796  15
1797  20
1798  17
1799  17
1800  18
1801  11
1802  18
1803  12
1804  9
1805  21
1806  20
1807  14
1808  11
1809  8
1810  15
1811  15
1812  8
1813  18
1814  16
1815  21
1816  18
1817  13
1818  13
1819  10
1820  14
1821  14
1822  9
1823  20
1824  12
1825  18
1826  14
1827  13
1828  5
1829  14
1830  11
1831  16
1832  9
1833  10
1834  12
1835  11
1836  18
1837  13
1838  10
1839  13
1840  15
1841  13
1842  4
1843  12
1844  14
1845  12
1846  11
1847  13
1848  14
1849  19
1850  6
1851  21
1852  10
1853  19
1854  12
1855  15
1856  14
1857  16
1858  21
1859  9
1860  13
1861  12
1862  9
1863  15
1864  17
1865  11
1866  16
1867  11
1868  21
1869  19
1870  20
1871  19
1872  24
1873  21
1874  19
1875  32
1876  22
1877  17
1878  22
1879  24
1880  35
1881  18
1882  25
1883  36
1884  29
1885  33
1886  36
1887  38
1888  38
1889  31
1890  46
1891  27
1892  37
1893  38
1894  38
1895  30
1896  38
1897  33
1898  39
1899  43
1900  45
1901  54
1902  46
1903  52
1904  49
1905  64
1906  49
1907  55
1908  47
1909  48
1910  63
1911  60
1912  58
1913  55
1914  64
1915  72
1916  58
1917  56
1918  69
1919  58
1920  65
1921  75
1922  76
1923  74
1924  72
1925  67
1926  77
1927  76
1928  75
1929  64
1930  81
1931  83
1932  62
1933  89
1934  85
1935  104
1936  84
1937  84
1938  71
1939  89
1940  92
1941  96
1942  90
1943  94
1944  111
1945  98
1946  78
1947  92
1948  110
1949  117
1950  109
1951  117
1952  109
1953  101
1954  101
1955  105
1956  117
1957  106
1958  105
1959  99
1960  104
1961  98
1962  124
1963  92
1964  76
1965  100
1966  100
1967  113
1968  100
1969  106
1970  126
1971  109
1972  117
1973  93
1974  113
1975  120
1976  117
1977  120
1978  99
1979  108
1980  90
1981  120
1982  108
1983  110
1984  114
1985  103
1986  116
1987  98
1988  103
1989  122
1990  112
1991  116
1992  128
1993  117
1994  112
1995  99
1996  117
1997  110
1998  93
1999  114
2000  111
2001  108
2002  85
2003  94
2004  90
2005  103
2006  110
2007  108
2008  101
2009  128
2010  104
2011  126
2012  117
2013  108
2014  102
2015  107
2016  100
2017  115
2018  104
2019  116
2020  96
2021  118
2022  101
2023  100
2024  102
2025  93
2026  104
2027  104
2028  102
2029  108
2030  92
2031  121
2032  91
2033  116
2034  102
2035  107
2036  111
2037  100
2038  100
2039  96
2040  84
2041  101
2042  94
2043  102
2044  113
2045  86
2046  114
2047  103
2048  75
2049  104
2050  79
2051  110
2052  75
2053  96
2054  111
2055  73
2056  93
2057  96
2058  92
2059  108
2060  90
2061  89
2062  80
2063  96
2064  89
2065  105
2066  73
2067  85
2068  88
2069  102
2070  92
2071  91
2072  85
2073  80
2074  83
2075  96
2076  80
2077  95
2078  98
2079  73
2080  87
2081  88
2082  79
2083  94
2084  88
2085  92
2086  91
2087  79
2088  88
2089  91
2090  78
2091  92
2092  73
2093  81
2094  73
2095  75
2096  83
2097  79
2098  93
2099  94
2100  86
2101  77
2102  83
2103  98
2104  81
2105  79
2106  74
2107  76
2108  101
2109  90
2110  90
2111  84
2112  70
2113  77
2114  85
2115  74
2116  73
2117  74
2118  80
2119  71
2120  90
2121  69
2122  91
2123  68
2124  68
2125  82
2126  72
2127  63
2128  78
2129  58
2130  85
2131  75
2132  58
2133  77
2134  67
2135  63
2136  69
2137  60
2138  63
2139  69
2140  73
2141  76
2142  76
2143  64
2144  69
2145  82
2146  71
2147  72
2148  57
2149  54
2150  75
2151  75
2152  75
2153  60
2154  65
2155  68
2156  79
2157  62
2158  56
2159  74
2160  57
2161  54
2162  53
2163  56
2164  62
2165  69
2166  71
2167  67
2168  60
2169  59
2170  64
2171  63
2172  60
2173  41
2174  64
2175  56
2176  57
2177  50
2178  60
2179  43
2180  58
2181  53
2182  58
2183  42
2184  59
2185  60
2186  50
2187  75
2188  47
2189  65
2190  42
2191  45
2192  49
2193  57
2194  46
2195  39
2196  50
2197  48
2198  56
2199  70
2200  49
2201  63
2202  57
2203  50
2204  50
2205  48
2206  46
2207  56
2208  46
2209  55
2210  49
2211  41
2212  49
2213  44
2214  63
2215  41
2216  50
2217  46
2218  48
2219  38
2220  50
2221  48
2222  40
2223  37
2224  50
2225  40
2226  51
2227  49
2228  42
2229  37
2230  59
2231  47
2232  31
2233  40
2234  42
2235  52
2236  44
2237  40
2238  43
2239  32
2240  53
2241  35
2242  38
2243  30
2244  40
2245  41
2246  45
2247  48
2248  40
2249  35
2250  35
2251  36
2252  42
2253  33
2254  48
2255  47
2256  36
2257  36
2258  34
2259  40
2260  31
2261  41
2262  35
2263  28
2264  38
2265  31
2266  31
2267  44
2268  37
2269  39
2270  33
2271  34
2272  32
2273  36
2274  33
2275  26
2276  34
2277  31
2278  43
2279  37
2280  36
2281  39
2282  33
2283  34
2284  24
2285  20
2286  30
2287  29
2288  26
2289  26
2290  33
2291  38
2292  38
2293  35
2294  24
2295  26
2296  18
2297  39
2298  28
2299  31
2300  24
2301  41
2302  30
2303  39
2304  31
2305  29
2306  29
2307  26
2308  25
2309  24
2310  21
2311  23
2312  27
2313  29
2314  33
2315  26
2316  12
2317  26
2318  25
2319  24
2320  28
2321  28
2322  31
2323  25
2324  24
2325  38
2326  23
2327  20
2328  28
2329  40
2330  23
2331  24
2332  30
2333  22
2334  31
2335  29
2336  26
2337  18
2338  25
2339  31
2340  23
2341  24
2342  19
2343  32
2344  23
2345  25
2346  23
2347  21
2348  19
2349  24
2350  24
2351  22
2352  29
2353  16
2354  22
2355  19
2356  23
2357  9
2358  21
2359  14
2360  14
2361  21
2362  23
2363  23
2364  20
2365  17
2366  28
2367  24
2368  16
2369  29
2370  30
2371  26
2372  23
2373  18
2374  13
2375  13
2376  18
2377  20
2378  21
2379  20
2380  19
2381  17
2382  19
2383  18
2384  18
2385  13
2386  16
2387  19
2388  16
2389  14
2390  21
2391  11
2392  13
2393  18
2394  18
2395  19
2396  21
2397  13
2398  16
2399  19
2400  16
2401  14
2402  18
2403  15
2404  16
2405  18
2406  23
2407  16
2408  14
2409  10
2410  18
2411  15
2412  25
2413  27
2414  19
2415  16
2416  20
2417  14
2418  19
2419  12
2420  14
2421  11
2422  17
2423  12
2424  14
2425  12
2426  16
2427  11
2428  15
2429  13
2430  7
2431  12
2432  11
2433  12
2434  23
2435  10
2436  16
2437  15
2438  19
2439  8
2440  11
2441  10
2442  19
2443  14
2444  16
2445  13
2446  10
2447  11
2448  11
2449  17
2450  13
2451  17
2452  11
2453  11
2454  11
2455  18
2456  18
2457  8
2458  11
2459  15
2460  12
2461  9
2462  12
2463  16
2464  11
2465  10
2466  16
2467  13
2468  11
2469  17
2470  15
2471  8
2472  17
2473  13
2474  10
2475  14
2476  7
2477  15
2478  10
2479  9
2480  10
2481  13
2482  10
2483  9
2484  9
2485  9
2486  6
2487  8
2488  11
2489  10
2490  12
2491  13
2492  10
2493  12
2494  14
2495  6
2496  11
2497  13
2498  7
2499  9
2500  9
2501  5
2502  6
2503  4
2504  9
2505  10
2506  8
2507  9
2508  7
2509  9
2510  8
2511  13
2512  7
2513  16
2514  9
2515  7
2516  10
2517  9
2518  15
2519  8
2520  11
2521  7
2522  8
2523  10
2524  11
2525  10
2526  5
2527  5
2528  8
2529  5
2530  11
2531  10
2532  8
2533  9
2534  8
2535  9
2536  12
2537  8
2538  2
2539  9
2540  6
2541  8
2542  8
2543  4
2544  4
2545  7
2546  6
2547  5
2548  13
2549  5
2550  5
2551  11
2552  11
2553  6
2554  9
2555  8
2556  12
2557  6
2558  9
2559  7
2560  9
2561  6
2562  4
2563  11
2564  9
2565  1
2566  10
2567  10
2568  4
2569  10
2570  9
2571  9
2572  4
2573  9
2574  5
2575  8
2576  5
2577  6
2578  3
2579  7
2580  9
2581  7
2582  5
2583  8
2584  4
2585  3
2586  10
2587  4
2588  7
2589  6
2590  4
2591  12
2592  10
2593  3
2594  10
2595  9
2596  5
2597  4
2598  5
2599  13
2600  4
2601  2
2602  5
2603  3
2604  5
2605  5
2606  3
2607  9
2608  7
2609  8
2610  5
2611  9
2612  7
2613  9
2614  2
2615  4
2616  4
2617  3
2618  7
2619  5
2620  3
2621  5
2622  3
2623  2
2624  5
2625  7
2626  8
2627  7
2628  3
2629  5
2630  4
2631  8
2632  4
2633  4
2634  6
2635  7
2636  3
2637  5
2638  7
2639  7
2640  2
2641  5
2642  4
2643  4
2644  7
2645  6
2646  12
2647  3
2648  3
2649  5
2650  4
2651  3
2652  2
2653  2
2654  5
2655  6
2656  4
2657  5
2658  5
2659  6
2660  0
2661  7
2662  5
2663  3
2664  5
2665  7
2666  8
2667  4
2668  2
2669  4
2670  5
2671  3
2672  4
2673  5
2674  3
2675  2
2676  7
2677  0
2678  5
2679  6
2680  7
2681  5
2682  5
2683  4
2684  4
2685  7
2686  5
2687  3
2688  6
2689  7
2690  5
2691  6
2692  2
2693  4
2694  5
2695  5
2696  1
2697  3
2698  4
2699  4
2700  6
2701  3
2702  2
2703  6
2704  3
2705  4
2706  8
2707  4
2708  5
2709  2
2710  2
2711  4
2712  1
2713  5
2714  2
2715  3
2716  5
2717  4
2718  6
2719  8
2720  2
2721  3
2722  2
2723  3
2724  2
2725  4
2726  1
2727  4
2728  3
2729  3
2730  5
2731  4
2732  2
2733  2
2734  3
2735  8
2736  4
2737  4
2738  2
2739  3
2740  0
2741  2
2742  1
2743  5
2744  1
2745  3
2746  2
2747  5
2748  2
2749  3
2750  2
2751  2
2752  0
2753  1
2754  1
2755  3
2756  4
2757  4
2758  3
2759  2
2760  4
2761  1
2762  2
2763  4
2764  6
2765  4
2766  3
2767  1
2768  4
2769  4
2770  2
2771  1
2772  2
2773  4
2774  0
2775  4
2776  3
2777  2
2778  2
2779  2
2780  5
2781  2
2782  4
2783  3
2784  1
2785  3
2786  3
2787  3
2788  4
2789  2
2790  2
2791  4
2792  4
2793  0
2794  1
2795  1
2796  4
2797  1
2798  3
2799  6
2800  3
2801  2
2802  1
2803  2
2804  5
2805  1
2806  1
2807  1
2808  2
2809  1
2810  2
2811  4
2812  1
2813  1
2814  0
2815  5
2816  4
2817  4
2818  4
2819  4
2820  3
2821  0
2822  2
2823  1
2824  1
2825  2
2826  1
2827  3
2828  1
2829  0
2830  2
2831  4
2832  2
2833  2
2834  2
2835  1
2836  1
2837  4
2838  3
2839  1
2840  3
2841  1
2842  3
2843  2
2844  0
2845  3
2846  1
2847  3
2848  0
2849  4
2850  1
2851  4
2852  1
2853  5
2854  0
2855  2
2856  3
2857  0
2858  3
2859  2
2860  0
2861  1
2862  1
2863  0
2864  2
2865  1
2866  1
2867  0
2868  1
2869  0
2870  1
2871  2
2872  0
2873  3
2874  0
2875  2
2876  1
2877  4
2878  1
2879  0
2880  2
2881  2
2882  1
2883  2
2884  1
2885  0
2886  1
2887  1
2888  3
2889  0
2890  1
2891  5
2892  2
2893  1
2894  2
2895  0
2896  4
2897  0
2898  1
2899  0
2900  2
2901  2
2902  1
2903  0
2904  1
2905  0
2906  3
2907  1
2908  1
2909  3
2910  0
2911  0
2912  0
2913  2
2914  2
2915  2
2916  1
2917  3
2918  1
2919  0
2920  0
2921  1
2922  0
2923  0
2924  1
2925  2
2926  1
2927  1
2928  1
2929  2
2930  2
2931  1
2932  0
2933  0
2934  2
2935  1
2936  0
2937  0
2938  1
2939  2
2940  0
2941  0
2942  2
2943  2
2944  1
2945  0
2946  0
2947  3
2948  1
2949  0
2950  1
2951  1
2952  0
2953  0
2954  1
2955  3
2956  0
2957  2
2958  1
2959  1
2960  1
2961  1
2962  1
2963  0
2964  2
2965  0
2966  0
2967  1
2968  2
2969  1
2970  2
2971  2
2972  0
2973  1
2974  1
2975  1
2976  0
2977  0
2978  2
2979  1
2980  3
2981  1
2982  0
2983  2
2984  0
2985  1
2986  1
2987  1
2988  2
2989  0
2990  0
2991  2
2992  3
2993  3
2994  1
2995  1
2996  0
2997  0
2998  1
2999  0
3000  1
3001  3
3002  0
3003  2
3004  1
3005  0
3006  1
3007  2
3008  1
3009  1
3010  2
3011  0
3012  1
3013  1
3014  2
3015  0
3016  0
3017  2
3018  1
3019  1
3020  1
3021  0
3022  0
3023  0
3024  1
3025  1
3026  0
3027  1
3028  0
3029  1
3030  0
3031  0
3032  2
3033  0
3034  2
3035  0
3036  1
3037  2
3038  0
3039  2
3040  0
3041  1
3042  0
3043  1
3044  2
3045  1
3046  0
3047  3
3048  1
3049  1
3050  2
3051  1
3052  0
3053  1
3054  0
3055  0
3056  2
3057  0
3058  0
3059  1
3060  0
3061  0
3062  1
3063  0
3064  1
3065  2
3066  0
3067  0
3068  0
3069  1
3070  0
3071  1
3072  0
3073  1
3074  2
3075  0
3076  0
3077  0
3078  0
3079  0
3080  0
3081  4
3082  1
3083  0
3084  1
3085  1
3086  0
3087  1
3088  0
3089  1
3090  0
3091  0
3092  0
3093  0
3094  0
3095  0
3096  1
3097  1
3098  0
3099  0
3100  1
3101  1
3102  1
3103  0
3104  0
3105  0
3106  2
3107  0
3108  2
3109  1
3110  0
3111  0
3112  0
3113  1
3114  0
3115  1
3116  0
3117  0
3118  1
3119  0
3120  0
3121  2
3122  0
3123  1
3124  1
3125  0
3126  1
3127  0
3128  1
3129  0
3130  2
3131  0
3132  0
3133  3
3134  0
3135  1
3136  0
3137  0
3138  0
3139  0
3140  0
3141  0
3142  0
3143  0
3144  1
3145  4
3146  1
3147  0
3148  0
3149  0
3150  2
3151  0
3152  0
3153  0
3154  1
3155  0
3156  2
3157  0
3158  0
3159  0
3160  0
3161  0
3162  0
3163  1
3164  0
3165  0
3166  0
3167  0
3168  1
3169  0
3170  0
3171  0
3172  1
3173  0
3174  3
3175  0
3176  0
3177  1
3178  0
3179  0
3180  2
3181  0
3182  0
3183  2
3184  0
3185  0
3186  0
3187  1
3188  2
3189  0
3190  0
3191  1
3192  0
3193  0
3194  0
3195  1
3196  1
3197  1
3198  0
3199  0
3200  2
3201  0
3202  0
3203  2
3204  0
3205  2
3206  0
3207  1
3208  0
3209  0
3210  1
3211  1
3212  0
3213  1
3214  0
3215  1
3216  0
3217  1
3218  1
3219  2
3220  1
3221  0
3222  0
3223  0
3224  1
3225  1
3226  1
3227  0
3228  0
3229  0
3230  1
3231  0
3232  1
3233  1
3234  1
3235  0
3236  1
3237  0
3238  0
3239  1
3240  0
3241  0
3242  0
3243  0
3244  1
3245  0
3246  0
3247  0
3248  0
3249  0
3250  1
3251  0
3252  0
3253  1
3254  0
3255  0
3256  0
3257  1
3258  0
3259  1
3260  1
3261  1
3262  1
3263  0
3264  0
3265  1
3266  3
3267  1
3268  0
3269  1
3270  0
3271  1
3272  0
3273  0
3274  0
3275  1
3276  0
3277  1
3278  0
3279  1
3280  0
3281  1
3282  0
3283  1
3284  0
3285  3
3286  0
3287  1
3288  0
3289  0
3290  0
3291  1
3292  0
3293  0
3294  0
3295  1
3296  0
3297  0
3298  0
3299  0
3300  0
3301  0
3302  0
3303  0
3304  1
3305  0
3306  0
3307  0
3308  2
3309  0
3310  0
3311  0
3312  0
3313  0
3314  0
3315  0
3316  0
3317  1
3318  0
3319  0
3320  2
3321  1
3322  0
3323  0
3324  0
3325  0
3326  0
3327  0
3328  0
3329  0
3330  1
3331  0
3332  0
3333  1
3334  1
3335  2
3336  0
3337  0
3338  0
3339  0
3340  0
3341  0
3342  0
3343  0
3344  0
3345  1
3346  1
3347  1
3348  0
3349  0
3350  0
3351  1
3352  0
3353  2
3354  0
3355  0
3356  0
3357  0
3358  0
3359  0
3360  0
3361  0
3362  0
3363  0
3364  0
3365  1
3366  0
3367  1
3368  1
3369  2
3370  0
3371  1
3372  0
3373  0
3374  2
3375  1
3376  0
3377  0
3378  1
3379  0
3380  1
3381  0
3382  1
3383  0
3384  1
3385  0
3386  0
3387  1
3388  1
3389  0
3390  0
3391  0
3392  0
3393  0
3394  0
3395  0
3396  1
3397  1
3398  1
3399  1
3400  0
3401  0
3402  1
3403  1
3404  0
3405  0
3406  0
3407  0
3408  1
3409  1
3410  0
3411  0
3412  0
3413  1
3414  0
3415  0
3416  2
3417  0
3418  0
3419  1
3420  1
3421  0
3422  0
3423  0
3424  1
3425  1
3426  0
3427  0
3428  1
3429  0
3430  2
3431  0
3432  1
3433  0
3434  0
3435  1
3436  0
3437  1
3438  0
3439  1
3440  0
3441  0
3442  0
3443  0
3444  2
3445  0
3446  2
3447  0
3448  0
3449  0
3450  3
3451  0
3452  0
3453  0
3454  0
3455  0
3456  0
3457  1
3458  1
3459  0
3460  0
3461  1
3462  0
3463  0
3464  0
3465  0
3466  0
3467  0
3468  1
3469  1
3470  1
3471  0
3472  0
3473  1
3474  0
3475  0
3476  1
3477  0
3478  2
3479  2
3480  1
3481  0
3482  2
3483  0
3484  0
3485  0
3486  1
3487  1
3488  0
3489  1
3490  1
3491  0
3492  0
3493  0
3494  0
3495  0
3496  1
3497  0
3498  1
3499  0
3500  0
3501  1
3502  0
3503  0
3504  1
3505  0
3506  0
3507  1
3508  0
3509  1
3510  0
3511  0
3512  0
3513  0
3514  0
3515  0
3516  1
3517  0
3518  1
3519  0
3520  0
3521  0
3522  0
3523  0
3524  0
3525  1
3526  0
3527  0
3528  0
3529  0
3530  0
3531  0
3532  0
3533  1
3534  1
3535  1
3536  0
3537  0
3538  0
3539  0
3540  2
3541  0
3542  0
3543  0
3544  1
3545  0
3546  0
3547  1
3548  0
3549  0
3550  0
3551  1
3552  2
3553  0
3554  1
3555  0
3556  1
3557  0
3558  2
3559  3
3560  2
3561  1
3562  1
3563  0
3564  0
3565  0
3566  0
3567  1
3568  0
3569  1
3570  0
3571  0
3572  0
3573  1
3574  0
3575  0
3576  0
3577  0
3578  0
3579  0
3580  0
3581  0
3582  0
3583  0
3584  0
3585  0
3586  0
3587  1
3588  1
3589  3
3590  0
3591  0
3592  0
3593  0
3594  0
3595  0
3596  0
3597  0
3598  1
3599  0
3600  0
3601  0
3602  0
3603  0
3604  0
3605  1
3606  0
3607  0
3608  1
3609  0
3610  2
3611  0
3612  1
3613  1
3614  0
3615  0
3616  0
3617  0
3618  0
3619  0
3620  0
3621  0
3622  0
3623  0
3624  0
3625  1
3626  0
3627  0
3628  2
3629  0
3630  1
3631  1
3632  0
3633  0
3634  1
3635  0
3636  1
3637  0
3638  1
3639  0
3640  1
3641  1
3642  0
3643  0
3644  1
3645  0
3646  1
3647  0
3648  0
3649  0
3650  0
3651  0
3652  1
3653  1
3654  0
3655  0
3656  0
3657  0
3658  1
3659  0
3660  1
3661  1
3662  1
3663  0
3664  0
3665  0
3666  0
3667  2
3668  0
3669  0
3670  0
3671  0
3672  1
3673  2
3674  0
3675  0
3676  0
3677  0
3678  1
3679  1
3680  0
3681  0
3682  2
3683  0
3684  0
3685  1
3686  0
3687  0
3688  0
3689  2
3690  1
3691  1
3692  1
3693  2
3694  0
3695  0
3696  0
3697  0
3698  0
3699  0
3700  1
3701  0
3702  0
3703  1
3704  1
3705  0
3706  1
3707  0
3708  0
3709  0
3710  1
3711  1
3712  0
3713  0
3714  0
3715  2
3716  1
3717  0
3718  0
3719  0
3720  0
3721  0
3722  1
3723  0
3724  0
3725  0
3726  2
3727  1
3728  1
3729  0
3730  0
3731  1
3732  1
3733  1
3734  0
3735  0
3736  0
3737  0
3738  0
3739  1
3740  0
3741  0
3742  1
3743  0
3744  1
3745  0
3746  1
3747  0
3748  0
3749  0
3750  0
3751  0
3752  0
3753  0
3754  0
3755  1
3756  0
3757  1
3758  0
3759  1
3760  1
3761  0
3762  1
3763  1
3764  0
3765  1
3766  0
3767  1
3768  0
3769  1
3770  0
3771  0
3772  1
3773  0
3774  0
3775  0
3776  2
3777  0
3778  0
3779  0
3780  2
3781  1
3782  0
3783  0
3784  0
3785  0
3786  0
3787  0
3788  0
3789  0
3790  0
3791  0
3792  0
3793  1
3794  1
3795  2
3796  1
3797  0
3798  0
3799  0
3800  0
3801  1
3802  1
3803  0
3804  0
3805  0
3806  0
3807  0
3808  0
3809  1
3810  0
3811  0
3812  2
3813  0
3814  0
3815  1
3816  0
3817  1
3818  0
3819  0
3820  0
3821  0
3822  0
3823  0
3824  0
3825  0
3826  2
3827  0
3828  0
3829  1
3830  0
3831  0
3832  1
3833  0
3834  1
3835  0
3836  0
3837  0
3838  0
3839  2
3840  0
3841  0
3842  0
3843  0
3844  0
3845  0
3846  0
3847  0
3848  0
3849  0
3850  0
3851  0
3852  0
3853  0
3854  0
3855  0
3856  0
3857  0
3858  0
3859  0
3860  0
3861  0
3862  0
3863  0
3864  0
3865  0
3866  0
3867  0
3868  0
3869  0
3870  0
3871  0
3872  0
3873  0
3874  0
3875  0
3876  0
3877  0
3878  0
3879  0
3880  0
3881  0
3882  0
3883  0
3884  0
3885  0
3886  0
3887  0
3888  0
3889  0
3890  0
3891  0
3892  0
3893  0
3894  0
3895  0
3896  0
3897  0
3898  0
3899  0
3900  0
3901  0
3902  0
3903  0
3904  0
3905  0
3906  0
3907  0
3908  0
3909  0
3910  0
3911  0
3912  0
3913  0
3914  0
3915  0
3916  0
3917  0
3918  0
3919  0
3920  0
3921  0
3922  0
3923  0
3924  0
3925  0
3926  0
3927  0
3928  0
3929  0
3930  0
3931  0
3932  0
3933  0
3934  0
3935  0
3936  0
3937  0
3938  0
3939  0
3940  0
3941  0
3942  0
3943  0
3944  0
3945  0
3946  0
3947  0
3948  0
3949  0
3950  0
3951  0
3952  0
3953  0
3954  0
3955  0
3956  0
3957  0
3958  0
3959  0
3960  0
3961  0
3962  0
3963  0
3964  0
3965  0
3966  0
3967  0
3968  0
3969  0
3970  0
3971  0
3972  0
3973  0
3974  0
3975  0
3976  0
3977  0
3978  0
3979  0
3980  0
3981  0
3982  0
3983  0
3984  0
3985  0
3986  0
3987  0
3988  0
3989  0
3990  0
3991  0
3992  0
3993  0
3994  0
3995  0
3996  0
3997  0
3998  0
3999  0
4000  0
4001  0
4002  0
4003  0
4004  0
4005  0
4006  0
4007  0
4008  0
4009  0
4010  0
4011  0
4012  0
4013  0
4014  0
4015  0
4016  0
4017  0
4018  0
4019  0
4020  0
4021  0
4022  0
4023  0
4024  0
4025  0
4026  0
4027  0
4028  0
4029  0
4030  0
4031  0
4032  0
4033  0
4034  0
4035  0
4036  0
4037  0
4038  0
4039  0
4040  0
4041  0
4042  0
4043  0
4044  0
4045  0
4046  0
4047  0
4048  0
4049  0
4050  0
4051  0
4052  0
4053  0
4054  0
4055  0
4056  0
4057  0
4058  0
4059  0
4060  0
4061  0
4062  0
4063  0
4064  0
4065  0
4066  0
4067  0
4068  0
4069  0
4070  0
4071  0
4072  0
4073  0
4074  0
4075  0
4076  0
4077  0
4078  0
4079  0
4080  0
4081  0
4082  0
4083  0
4084  0
4085  0
4086  0
4087  0
4088  0
4089  0
4090  0
4091  0
4092  0
4093  0
4094  0
4095  0
