0  0
1  0
2  0
3  0
4  0
5  0
6  0
7  0
8  0
9  0
10  0
11  0
12  0
13  0
14  0
15  0
16  0
17  0
18  0
19  0
20  0
21  0
22  0
23  0
24  0
25  0
26  0
27  0
28  0
29  0
30  0
31  0
32  0
33  0
34  0
35  0
36  0
37  0
38  0
39  0
40  0
41  0
42  0
43  0
44  0
45  0
46  0
47  0
48  0
49  0
50  0
51  0
52  0
53  0
54  0
55  0
56  0
57  0
58  0
59  0
60  0
61  0
62  0
63  0
64  0
65  0
66  0
67  0
68  0
69  0
70  0
71  0
72  0
73  0
74  0
75  0
76  0
77  0
78  0
79  0
80  0
81  0
82  0
83  0
84  0
85  0
86  0
87  0
88  0
89  0
90  0
91  0
92  0
93  0
94  0
95  0
96  0
97  0
98  0
99  0
100  0
101  0
102  0
103  0
104  0
105  0
106  0
107  0
108  0
109  0
110  0
111  0
112  0
113  0
114  0
115  0
116  0
117  0
118  0
119  0
120  0
121  0
122  0
123  0
124  0
125  0
126  0
127  0
128  0
129  0
130  0
131  0
132  0
133  0
134  0
135  0
136  0
137  0
138  0
139  0
140  0
141  0
142  0
143  0
144  0
145  0
146  0
147  0
148  0
149  0
150  0
151  0
152  0
153  0
154  0
155  0
156  0
157  0
158  0
159  0
160  0
161  0
162  0
163  0
164  0
165  0
166  0
167  0
168  0
169  0
170  0
171  0
172  0
173  0
174  0
175  0
176  0
177  0
178  0
179  0
180  0
181  0
182  0
183  0
184  0
185  0
186  0
187  0
188  0
189  0
190  0
191  0
192  0
193  0
194  0
195  0
196  0
197  0
198  0
199  0
200  0
201  0
202  0
203  0
204  0
205  0
206  0
207  0
208  0
209  0
210  0
211  0
212  0
213  0
214  0
215  0
216  0
217  0
218  0
219  0
220  0
221  0
222  0
223  0
224  0
225  0
226  0
227  0
228  0
229  0
230  0
231  0
232  0
233  0
234  0
235  0
236  0
237  0
238  0
239  0
240  0
241  0
242  0
243  0
244  0
245  0
246  0
247  0
248  0
249  0
250  0
251  0
252  0
253  0
254  0
255  0
256  0
257  0
258  0
259  0
260  0
261  0
262  0
263  0
264  0
265  0
266  0
267  0
268  0
269  0
270  0
271  0
272  0
273  0
274  0
275  0
276  0
277  0
278  0
279  0
280  0
281  0
282  0
283  0
284  0
285  0
286  0
287  0
288  0
289  0
290  0
291  0
292  0
293  0
294  0
295  0
296  0
297  0
298  0
299  0
300  0
301  0
302  0
303  0
304  0
305  0
306  0
307  0
308  0
309  0
310  0
311  0
312  0
313  0
314  0
315  0
316  0
317  0
318  0
319  0
320  0
321  0
322  0
323  0
324  0
325  0
326  0
327  0
328  0
329  0
330  0
331  0
332  0
333  0
334  0
335  0
336  0
337  0
338  0
339  0
340  0
341  0
342  0
343  0
344  0
345  0
346  0
347  0
348  0
349  0
350  0
351  0
352  0
353  0
354  0
355  0
356  0
357  0
358  0
359  0
360  0
361  0
362  0
363  0
364  0
365  0
366  0
367  0
368  0
369  0
370  0
371  0
372  0
373  0
374  0
375  0
376  0
377  0
378  0
379  0
380  0
381  0
382  0
383  0
384  0
385  0
386  0
387  0
388  0
389  0
390  0
391  0
392  0
393  0
394  0
395  0
396  0
397  0
398  0
399  0
400  0
401  0
402  0
403  0
404  0
405  0
406  0
407  0
408  0
409  0
410  0
411  0
412  0
413  0
414  0
415  0
416  0
417  0
418  0
419  0
420  0
421  0
422  0
423  0
424  0
425  0
426  0
427  0
428  0
429  0
430  0
431  0
432  0
433  0
434  0
435  0
436  0
437  0
438  0
439  0
440  0
441  0
442  0
443  0
444  0
445  0
446  0
447  0
448  0
449  0
450  0
451  0
452  0
453  0
454  0
455  0
456  0
457  0
458  0
459  0
460  0
461  0
462  0
463  0
464  0
465  0
466  0
467  0
468  0
469  0
470  0
471  0
472  0
473  0
474  0
475  0
476  0
477  0
478  0
479  0
480  0
481  0
482  0
483  0
484  0
485  0
486  0
487  0
488  0
489  0
490  0
491  0
492  0
493  0
494  0
495  0
496  0
497  0
498  0
499  0
500  0
501  0
502  0
503  0
504  0
505  0
506  0
507  0
508  0
509  0
510  0
511  0
512  0
513  0
514  0
515  0
516  0
517  0
518  0
519  0
520  0
521  0
522  0
523  0
524  0
525  0
526  0
527  0
528  0
529  0
530  0
531  0
532  0
533  0
534  0
535  0
536  0
537  0
538  0
539  0
540  0
541  0
542  0
543  0
544  0
545  0
546  0
547  0
548  0
549  0
550  0
551  0
552  0
553  0
554  0
555  0
556  0
557  0
558  0
559  0
560  0
561  0
562  0
563  0
564  0
565  0
566  0
567  0
568  0
569  0
570  0
571  0
572  0
573  0
574  0
575  0
576  0
577  0
578  0
579  0
580  0
581  0
582  0
583  0
584  0
585  0
586  0
587  0
588  0
589  0
590  0
591  0
592  0
593  0
594  0
595  0
596  0
597  0
598  0
599  0
600  0
601  0
602  0
603  0
604  0
605  0
606  0
607  0
608  0
609  0
610  0
611  0
612  0
613  0
614  0
615  0
616  0
617  0
618  0
619  0
620  0
621  0
622  0
623  0
624  0
625  0
626  0
627  0
628  0
629  0
630  0
631  0
632  0
633  0
634  0
635  0
636  0
637  0
638  0
639  0
640  0
641  0
642  0
643  0
644  0
645  0
646  0
647  0
648  0
649  0
650  0
651  0
652  0
653  0
654  0
655  0
656  0
657  0
658  0
659  0
660  0
661  0
662  0
663  0
664  0
665  0
666  0
667  0
668  0
669  0
670  0
671  0
672  0
673  0
674  0
675  0
676  0
677  0
678  0
679  0
680  0
681  0
682  0
683  0
684  0
685  0
686  0
687  0
688  0
689  0
690  0
691  0
692  0
693  0
694  0
695  0
696  0
697  0
698  0
699  0
700  0
701  0
702  0
703  0
704  0
705  0
706  0
707  0
708  0
709  0
710  0
711  0
712  0
713  0
714  0
715  0
716  0
717  0
718  0
719  0
720  0
721  0
722  0
723  0
724  0
725  0
726  0
727  0
728  0
729  0
730  0
731  0
732  0
733  0
734  0
735  0
736  0
737  0
738  0
739  0
740  0
741  0
742  0
743  0
744  0
745  0
746  0
747  0
748  0
749  0
750  0
751  0
752  0
753  0
754  0
755  0
756  0
757  0
758  0
759  0
760  0
761  0
762  0
763  0
764  0
765  0
766  0
767  0
768  0
769  0
770  0
771  0
772  0
773  0
774  0
775  0
776  0
777  0
778  0
779  0
780  0
781  0
782  0
783  0
784  0
785  0
786  0
787  0
788  0
789  0
790  0
791  0
792  0
793  0
794  0
795  0
796  0
797  0
798  0
799  0
800  0
801  0
802  0
803  0
804  0
805  0
806  0
807  0
808  0
809  0
810  0
811  0
812  0
813  0
814  0
815  0
816  0
817  0
818  0
819  0
820  0
821  0
822  0
823  0
824  0
825  0
826  0
827  0
828  0
829  0
830  0
831  0
832  0
833  0
834  0
835  0
836  0
837  0
838  0
839  0
840  0
841  0
842  0
843  0
844  0
845  0
846  0
847  0
848  0
849  0
850  0
851  0
852  0
853  0
854  0
855  0
856  0
857  0
858  0
859  0
860  0
861  0
862  0
863  0
864  0
865  0
866  0
867  0
868  0
869  0
870  0
871  0
872  0
873  0
874  0
875  0
876  0
877  0
878  0
879  0
880  0
881  0
882  0
883  0
884  0
885  0
886  0
887  0
888  0
889  0
890  0
891  0
892  0
893  0
894  0
895  0
896  0
897  0
898  0
899  0
900  0
901  0
902  0
903  0
904  0
905  0
906  0
907  0
908  0
909  0
910  0
911  0
912  0
913  0
914  0
915  0
916  0
917  0
918  0
919  0
920  0
921  0
922  0
923  0
924  0
925  0
926  0
927  0
928  0
929  0
930  0
931  0
932  0
933  0
934  0
935  0
936  0
937  0
938  0
939  0
940  0
941  0
942  0
943  0
944  0
945  0
946  0
947  0
948  0
949  0
950  0
951  0
952  0
953  0
954  0
955  0
956  0
957  0
958  0
959  0
960  0
961  0
962  0
963  0
964  0
965  0
966  0
967  0
968  0
969  0
970  0
971  0
972  0
973  0
974  0
975  0
976  0
977  0
978  0
979  0
980  0
981  0
982  0
983  0
984  0
985  0
986  0
987  0
988  0
989  0
990  0
991  0
992  0
993  0
994  0
995  0
996  0
997  0
998  0
999  0
1000  0
1001  0
1002  0
1003  0
1004  0
1005  0
1006  0
1007  0
1008  0
1009  0
1010  0
1011  0
1012  0
1013  0
1014  0
1015  0
1016  0
1017  0
1018  0
1019  0
1020  0
1021  0
1022  0
1023  0
1024  0
1025  0
1026  0
1027  0
1028  0
1029  0
1030  0
1031  0
1032  0
1033  0
1034  0
1035  0
1036  0
1037  0
1038  0
1039  0
1040  0
1041  0
1042  0
1043  0
1044  0
1045  0
1046  0
1047  0
1048  0
1049  0
1050  0
1051  0
1052  0
1053  0
1054  0
1055  0
1056  0
1057  0
1058  0
1059  0
1060  0
1061  0
1062  0
1063  0
1064  0
1065  0
1066  0
1067  0
1068  0
1069  0
1070  0
1071  0
1072  0
1073  0
1074  0
1075  0
1076  0
1077  0
1078  0
1079  0
1080  0
1081  0
1082  0
1083  0
1084  0
1085  0
1086  0
1087  0
1088  0
1089  0
1090  0
1091  0
1092  0
1093  0
1094  0
1095  0
1096  0
1097  0
1098  0
1099  0
1100  0
1101  0
1102  0
1103  0
1104  0
1105  0
1106  0
1107  0
1108  0
1109  0
1110  0
1111  0
1112  0
1113  0
1114  0
1115  0
1116  0
1117  0
1118  0
1119  0
1120  0
1121  0
1122  0
1123  0
1124  0
1125  0
1126  0
1127  0
1128  0
1129  0
1130  0
1131  0
1132  0
1133  0
1134  0
1135  0
1136  0
1137  0
1138  0
1139  0
1140  0
1141  0
1142  0
1143  0
1144  0
1145  0
1146  0
1147  0
1148  0
1149  0
1150  0
1151  0
1152  0
1153  0
1154  0
1155  0
1156  0
1157  0
1158  0
1159  0
1160  0
1161  0
1162  0
1163  0
1164  0
1165  0
1166  0
1167  0
1168  0
1169  0
1170  0
1171  0
1172  0
1173  0
1174  0
1175  0
1176  0
1177  0
1178  0
1179  0
1180  0
1181  0
1182  0
1183  0
1184  0
1185  0
1186  0
1187  0
1188  0
1189  0
1190  0
1191  0
1192  0
1193  0
1194  0
1195  0
1196  0
1197  0
1198  0
1199  0
1200  0
1201  0
1202  0
1203  0
1204  0
1205  0
1206  0
1207  0
1208  0
1209  0
1210  0
1211  0
1212  0
1213  0
1214  0
1215  0
1216  0
1217  0
1218  0
1219  0
1220  0
1221  0
1222  0
1223  0
1224  0
1225  0
1226  0
1227  0
1228  0
1229  0
1230  0
1231  0
1232  0
1233  0
1234  0
1235  0
1236  0
1237  0
1238  0
1239  0
1240  0
1241  0
1242  0
1243  0
1244  0
1245  0
1246  0
1247  0
1248  0
1249  0
1250  0
1251  0
1252  0
1253  0
1254  0
1255  0
1256  0
1257  0
1258  0
1259  0
1260  0
1261  0
1262  0
1263  0
1264  0
1265  0
1266  0
1267  0
1268  0
1269  0
1270  0
1271  0
1272  0
1273  0
1274  0
1275  0
1276  0
1277  0
1278  0
1279  0
1280  0
1281  0
1282  0
1283  0
1284  0
1285  0
1286  0
1287  0
1288  0
1289  0
1290  0
1291  0
1292  0
1293  0
1294  0
1295  0
1296  0
1297  0
1298  0
1299  0
1300  0
1301  0
1302  0
1303  0
1304  0
1305  0
1306  0
1307  0
1308  0
1309  0
1310  0
1311  0
1312  0
1313  0
1314  0
1315  0
1316  0
1317  0
1318  0
1319  0
1320  0
1321  0
1322  0
1323  0
1324  0
1325  0
1326  0
1327  0
1328  0
1329  0
1330  0
1331  0
1332  0
1333  0
1334  0
1335  0
1336  0
1337  0
1338  0
1339  0
1340  0
1341  0
1342  0
1343  0
1344  0
1345  0
1346  0
1347  0
1348  0
1349  0
1350  0
1351  0
1352  0
1353  0
1354  0
1355  0
1356  0
1357  0
1358  0
1359  0
1360  0
1361  0
1362  0
1363  0
1364  0
1365  0
1366  0
1367  0
1368  0
1369  0
1370  0
1371  0
1372  0
1373  0
1374  0
1375  0
1376  0
1377  0
1378  0
1379  0
1380  0
1381  0
1382  0
1383  0
1384  0
1385  0
1386  0
1387  0
1388  0
1389  0
1390  0
1391  0
1392  0
1393  0
1394  0
1395  0
1396  0
1397  0
1398  0
1399  0
1400  0
1401  0
1402  0
1403  0
1404  0
1405  0
1406  0
1407  0
1408  0
1409  0
1410  0
1411  0
1412  0
1413  0
1414  0
1415  0
1416  0
1417  0
1418  0
1419  0
1420  0
1421  0
1422  0
1423  0
1424  0
1425  0
1426  0
1427  0
1428  0
1429  0
1430  0
1431  0
1432  0
1433  0
1434  0
1435  0
1436  0
1437  0
1438  0
1439  0
1440  0
1441  0
1442  0
1443  0
1444  0
1445  0
1446  0
1447  0
1448  0
1449  0
1450  0
1451  0
1452  0
1453  0
1454  0
1455  0
1456  0
1457  0
1458  0
1459  0
1460  0
1461  0
1462  0
1463  0
1464  0
1465  0
1466  0
1467  0
1468  0
1469  0
1470  0
1471  0
1472  0
1473  0
1474  0
1475  0
1476  0
1477  0
1478  0
1479  0
1480  0
1481  0
1482  0
1483  0
1484  0
1485  0
1486  0
1487  0
1488  0
1489  0
1490  0
1491  0
1492  0
1493  0
1494  0
1495  0
1496  0
1497  0
1498  0
1499  0
1500  0
1501  0
1502  0
1503  0
1504  0
1505  0
1506  0
1507  0
1508  0
1509  0
1510  0
1511  0
1512  0
1513  0
1514  0
1515  0
1516  0
1517  0
1518  0
1519  0
1520  0
1521  0
1522  0
1523  0
1524  0
1525  0
1526  0
1527  0
1528  0
1529  0
1530  0
1531  0
1532  0
1533  0
1534  0
1535  0
1536  0
1537  0
1538  0
1539  0
1540  0
1541  0
1542  0
1543  0
1544  0
1545  0
1546  0
1547  0
1548  0
1549  0
1550  0
1551  0
1552  0
1553  0
1554  0
1555  0
1556  0
1557  0
1558  0
1559  0
1560  0
1561  0
1562  0
1563  0
1564  0
1565  0
1566  0
1567  0
1568  0
1569  0
1570  0
1571  0
1572  0
1573  0
1574  0
1575  0
1576  0
1577  0
1578  0
1579  0
1580  0
1581  0
1582  0
1583  0
1584  0
1585  0
1586  0
1587  0
1588  0
1589  0
1590  0
1591  0
1592  0
1593  0
1594  0
1595  0
1596  1
1597  0
1598  4
1599  11
1600  39
1601  144
1602  466
1603  1004
1604  1699
1605  2330
1606  2616
1607  2830
1608  2806
1609  2932
1610  2788
1611  2876
1612  2865
1613  3011
1614  2941
1615  2943
1616  2964
1617  2999
1618  2912
1619  2901
1620  2731
1621  2841
1622  2762
1623  2727
1624  2808
1625  2745
1626  2547
1627  2580
1628  2472
1629  2457
1630  2392
1631  2258
1632  2287
1633  2199
1634  2123
1635  2103
1636  2081
1637  1980
1638  1907
1639  1836
1640  1772
1641  1650
1642  1627
1643  1536
1644  1503
1645  1478
1646  1428
1647  1311
1648  1253
1649  1252
1650  1152
1651  1174
1652  1022
1653  994
1654  916
1655  896
1656  858
1657  856
1658  766
1659  723
1660  744
1661  682
1662  648
1663  576
1664  611
1665  546
1666  530
1667  508
1668  507
1669  410
1670  461
1671  426
1672  372
1673  376
1674  340
1675  358
1676  321
1677  296
1678  264
1679  286
1680  273
1681  234
1682  217
1683  206
1684  211
1685  191
1686  179
1687  187
1688  180
1689  170
1690  168
1691  167
1692  161
1693  151
1694  132
1695  139
1696  126
1697  98
1698  111
1699  111
1700  137
1701  97
1702  107
1703  115
1704  98
1705  91
1706  78
1707  90
1708  108
1709  77
1710  97
1711  86
1712  61
1713  80
1714  71
1715  72
1716  53
1717  51
1718  60
1719  64
1720  62
1721  68
1722  62
1723  69
1724  71
1725  52
1726  48
1727  56
1728  48
1729  49
1730  37
1731  47
1732  45
1733  35
1734  67
1735  42
1736  38
1737  30
1738  53
1739  31
1740  37
1741  34
1742  47
1743  37
1744  39
1745  37
1746  36
1747  29
1748  42
1749  35
1750  33
1751  25
1752  35
1753  31
1754  40
1755  44
1756  25
1757  47
1758  25
1759  34
1760  32
1761  28
1762  38
1763  27
1764  34
1765  27
1766  24
1767  41
1768  42
1769  41
1770  28
1771  41
1772  36
1773  29
1774  45
1775  38
1776  45
1777  44
1778  46
1779  43
1780  30
1781  39
1782  38
1783  44
1784  37
1785  45
1786  50
1787  39
1788  41
1789  47
1790  40
1791  51
1792  34
1793  52
1794  55
1795  48
1796  56
1797  50
1798  55
1799  52
1800  46
1801  60
1802  54
1803  48
1804  64
1805  63
1806  75
1807  61
1808  59
1809  62
1810  69
1811  76
1812  58
1813  59
1814  79
1815  65
1816  73
1817  93
1818  76
1819  87
1820  79
1821  91
1822  90
1823  68
1824  83
1825  101
1826  94
1827  121
1828  108
1829  114
1830  110
1831  140
1832  110
1833  113
1834  99
1835  107
1836  110
1837  135
1838  123
1839  110
1840  151
1841  134
1842  140
1843  142
1844  139
1845  137
1846  143
1847  129
1848  150
1849  177
1850  158
1851  159
1852  138
1853  146
1854  166
1855  164
1856  145
1857  159
1858  168
1859  171
1860  176
1861  158
1862  171
1863  200
1864  196
1865  196
1866  178
1867  189
1868  211
1869  196
1870  187
1871  187
1872  218
1873  198
1874  217
1875  207
1876  213
1877  211
1878  224
1879  218
1880  225
1881  205
1882  203
1883  224
1884  243
1885  225
1886  209
1887  206
1888  255
1889  236
1890  267
1891  244
1892  238
1893  234
1894  255
1895  251
1896  231
1897  247
1898  227
1899  239
1900  257
1901  265
1902  242
1903  260
1904  255
1905  274
1906  247
1907  280
1908  243
1909  249
1910  233
1911  241
1912  252
1913  258
1914  258
1915  249
1916  279
1917  267
1918  270
1919  253
1920  239
1921  254
1922  272
1923  265
1924  251
1925  290
1926  269
1927  252
1928  247
1929  252
1930  273
1931  244
1932  268
1933  250
1934  256
1935  264
1936  248
1937  258
1938  251
1939  229
1940  245
1941  230
1942  260
1943  252
1944  243
1945  257
1946  263
1947  254
1948  263
1949  250
1950  247
1951  254
1952  263
1953  194
1954  247
1955  267
1956  242
1957  292
1958  297
1959  238
1960  274
1961  255
1962  247
1963  248
1964  255
1965  284
1966  234
1967  261
1968  263
1969  228
1970  244
1971  222
1972  220
1973  209
1974  223
1975  242
1976  235
1977  236
1978  251
1979  241
1980  238
1981  245
1982  215
1983  203
1984  222
1985  216
1986  210
1987  211
1988  211
1989  217
1990  203
1991  187
1992  222
1993  211
1994  221
1995  216
1996  193
1997  220
1998  194
1999  224
2000  214
2001  216
2002  218
2003  192
2004  187
2005  186
2006  208
2007  194
2008  198
2009  201
2010  183
2011  183
2012  193
2013  182
2014  187
2015  187
2016  215
2017  189
2018  186
2019  190
2020  197
2021  176
2022  175
2023  154
2024  198
2025  181
2026  182
2027  178
2028  189
2029  192
2030  176
2031  153
2032  162
2033  162
2034  160
2035  156
2036  161
2037  149
2038  168
2039  162
2040  151
2041  151
2042  148
2043  166
2044  154
2045  154
2046  138
2047  156
2048  131
2049  153
2050  155
2051  159
2052  132
2053  127
2054  150
2055  161
2056  122
2057  139
2058  137
2059  143
2060  131
2061  117
2062  131
2063  118
2064  130
2065  133
2066  115
2067  134
2068  141
2069  131
2070  127
2071  107
2072  116
2073  122
2074  118
2075  119
2076  101
2077  113
2078  121
2079  108
2080  112
2081  107
2082  113
2083  112
2084  119
2085  114
2086  108
2087  93
2088  104
2089  90
2090  100
2091  107
2092  102
2093  107
2094  107
2095  100
2096  111
2097  91
2098  95
2099  76
2100  107
2101  90
2102  110
2103  77
2104  89
2105  93
2106  88
2107  93
2108  87
2109  99
2110  74
2111  79
2112  95
2113  92
2114  90
2115  81
2116  83
2117  75
2118  71
2119  65
2120  86
2121  83
2122  77
2123  73
2124  63
2125  85
2126  70
2127  65
2128  68
2129  67
2130  68
2131  75
2132  62
2133  67
2134  72
2135  69
2136  78
2137  75
2138  64
2139  68
2140  54
2141  72
2142  67
2143  69
2144  67
2145  55
2146  67
2147  63
2148  79
2149  61
2150  67
2151  56
2152  65
2153  65
2154  55
2155  65
2156  59
2157  54
2158  50
2159  50
2160  48
2161  61
2162  55
2163  60
2164  60
2165  53
2166  43
2167  44
2168  39
2169  52
2170  51
2171  55
2172  50
2173  33
2174  41
2175  37
2176  42
2177  47
2178  44
2179  52
2180  42
2181  47
2182  41
2183  40
2184  50
2185  42
2186  37
2187  39
2188  29
2189  35
2190  26
2191  33
2192  44
2193  42
2194  45
2195  38
2196  30
2197  39
2198  36
2199  50
2200  25
2201  49
2202  40
2203  38
2204  39
2205  32
2206  26
2207  42
2208  37
2209  28
2210  33
2211  25
2212  32
2213  26
2214  34
2215  35
2216  37
2217  32
2218  29
2219  26
2220  19
2221  30
2222  36
2223  30
2224  23
2225  31
2226  34
2227  25
2228  24
2229  24
2230  31
2231  32
2232  32
2233  28
2234  28
2235  34
2236  36
2237  26
2238  21
2239  18
2240  24
2241  20
2242  30
2243  21
2244  29
2245  16
2246  23
2247  30
2248  12
2249  23
2250  24
2251  19
2252  18
2253  16
2254  23
2255  23
2256  26
2257  18
2258  18
2259  26
2260  12
2261  25
2262  23
2263  27
2264  30
2265  17
2266  23
2267  21
2268  25
2269  12
2270  17
2271  17
2272  25
2273  16
2274  33
2275  19
2276  23
2277  22
2278  19
2279  17
2280  11
2281  22
2282  12
2283  13
2284  22
2285  11
2286  11
2287  18
2288  17
2289  19
2290  19
2291  11
2292  10
2293  16
2294  12
2295  15
2296  15
2297  15
2298  17
2299  16
2300  8
2301  14
2302  13
2303  14
2304  25
2305  12
2306  19
2307  16
2308  15
2309  12
2310  14
2311  12
2312  20
2313  22
2314  13
2315  16
2316  18
2317  8
2318  17
2319  12
2320  10
2321  18
2322  11
2323  13
2324  13
2325  14
2326  12
2327  12
2328  14
2329  13
2330  12
2331  18
2332  12
2333  17
2334  14
2335  17
2336  12
2337  9
2338  13
2339  6
2340  7
2341  11
2342  12
2343  11
2344  19
2345  10
2346  15
2347  7
2348  12
2349  13
2350  6
2351  6
2352  10
2353  12
2354  7
2355  11
2356  7
2357  12
2358  12
2359  12
2360  11
2361  11
2362  11
2363  12
2364  14
2365  12
2366  13
2367  5
2368  10
2369  6
2370  8
2371  5
2372  6
2373  8
2374  5
2375  8
2376  8
2377  6
2378  7
2379  9
2380  6
2381  9
2382  8
2383  5
2384  14
2385  8
2386  8
2387  10
2388  10
2389  4
2390  6
2391  12
2392  11
2393  7
2394  1
2395  6
2396  7
2397  11
2398  5
2399  9
2400  7
2401  5
2402  2
2403  4
2404  6
2405  9
2406  8
2407  8
2408  7
2409  3
2410  5
2411  5
2412  5
2413  8
2414  8
2415  6
2416  2
2417  10
2418  6
2419  4
2420  5
2421  10
2422  4
2423  3
2424  6
2425  4
2426  7
2427  2
2428  7
2429  9
2430  6
2431  2
2432  7
2433  7
2434  4
2435  2
2436  3
2437  4
2438  4
2439  7
2440  3
2441  5
2442  5
2443  2
2444  4
2445  3
2446  5
2447  7
2448  3
2449  8
2450  5
2451  9
2452  5
2453  3
2454  7
2455  5
2456  10
2457  7
2458  5
2459  0
2460  7
2461  5
2462  3
2463  4
2464  4
2465  9
2466  7
2467  6
2468  4
2469  6
2470  5
2471  2
2472  4
2473  4
2474  11
2475  3
2476  2
2477  6
2478  4
2479  4
2480  7
2481  4
2482  3
2483  0
2484  3
2485  4
2486  4
2487  3
2488  4
2489  0
2490  4
2491  3
2492  5
2493  3
2494  2
2495  2
2496  2
2497  7
2498  1
2499  4
2500  2
2501  5
2502  1
2503  0
2504  1
2505  4
2506  2
2507  5
2508  1
2509  1
2510  2
2511  2
2512  3
2513  1
2514  2
2515  6
2516  6
2517  4
2518  3
2519  6
2520  4
2521  2
2522  6
2523  5
2524  2
2525  3
2526  3
2527  4
2528  4
2529  1
2530  5
2531  2
2532  2
2533  0
2534  4
2535  3
2536  2
2537  3
2538  2
2539  3
2540  3
2541  0
2542  3
2543  4
2544  3
2545  4
2546  3
2547  3
2548  0
2549  4
2550  1
2551  0
2552  5
2553  4
2554  4
2555  1
2556  2
2557  3
2558  4
2559  4
2560  4
2561  5
2562  4
2563  6
2564  3
2565  3
2566  3
2567  2
2568  4
2569  4
2570  0
2571  2
2572  2
2573  2
2574  3
2575  2
2576  0
2577  2
2578  4
2579  1
2580  2
2581  1
2582  4
2583  5
2584  3
2585  2
2586  6
2587  1
2588  5
2589  1
2590  3
2591  2
2592  1
2593  2
2594  1
2595  6
2596  2
2597  3
2598  2
2599  3
2600  4
2601  0
2602  6
2603  3
2604  0
2605  2
2606  0
2607  4
2608  1
2609  1
2610  0
2611  1
2612  2
2613  6
2614  0
2615  1
2616  2
2617  2
2618  1
2619  0
2620  1
2621  2
2622  0
2623  1
2624  3
2625  4
2626  0
2627  2
2628  1
2629  3
2630  1
2631  0
2632  2
2633  0
2634  1
2635  2
2636  2
2637  4
2638  3
2639  0
2640  0
2641  1
2642  1
2643  1
2644  4
2645  1
2646  0
2647  0
2648  5
2649  1
2650  2
2651  2
2652  4
2653  2
2654  3
2655  4
2656  4
2657  0
2658  2
2659  2
2660  1
2661  0
2662  2
2663  3
2664  2
2665  1
2666  0
2667  0
2668  1
2669  2
2670  2
2671  1
2672  3
2673  2
2674  2
2675  0
2676  0
2677  5
2678  2
2679  4
2680  1
2681  1
2682  0
2683  1
2684  1
2685  1
2686  2
2687  3
2688  1
2689  1
2690  1
2691  1
2692  1
2693  0
2694  2
2695  2
2696  1
2697  0
2698  2
2699  1
2700  3
2701  1
2702  3
2703  0
2704  0
2705  1
2706  2
2707  2
2708  3
2709  1
2710  0
2711  3
2712  1
2713  1
2714  0
2715  3
2716  4
2717  1
2718  0
2719  0
2720  2
2721  1
2722  0
2723  1
2724  1
2725  0
2726  0
2727  2
2728  0
2729  0
2730  3
2731  1
2732  1
2733  0
2734  1
2735  0
2736  0
2737  1
2738  0
2739  0
2740  0
2741  1
2742  0
2743  1
2744  0
2745  1
2746  0
2747  0
2748  2
2749  1
2750  3
2751  0
2752  1
2753  0
2754  0
2755  1
2756  2
2757  2
2758  0
2759  0
2760  3
2761  0
2762  0
2763  2
2764  1
2765  1
2766  2
2767  1
2768  0
2769  1
2770  1
2771  1
2772  0
2773  2
2774  0
2775  0
2776  0
2777  0
2778  1
2779  1
2780  2
2781  0
2782  0
2783  0
2784  2
2785  1
2786  0
2787  2
2788  2
2789  0
2790  1
2791  2
2792  1
2793  1
2794  2
2795  1
2796  0
2797  3
2798  0
2799  1
2800  0
2801  0
2802  1
2803  1
2804  1
2805  0
2806  1
2807  3
2808  1
2809  1
2810  1
2811  1
2812  0
2813  0
2814  1
2815  0
2816  0
2817  0
2818  0
2819  0
2820  1
2821  1
2822  0
2823  0
2824  1
2825  0
2826  1
2827  0
2828  2
2829  2
2830  0
2831  2
2832  1
2833  1
2834  0
2835  2
2836  0
2837  2
2838  0
2839  0
2840  0
2841  0
2842  1
2843  0
2844  0
2845  0
2846  2
2847  0
2848  0
2849  4
2850  0
2851  0
2852  1
2853  2
2854  1
2855  1
2856  0
2857  0
2858  2
2859  1
2860  2
2861  2
2862  0
2863  1
2864  1
2865  0
2866  1
2867  1
2868  2
2869  0
2870  0
2871  0
2872  1
2873  1
2874  3
2875  1
2876  0
2877  1
2878  2
2879  2
2880  2
2881  0
2882  1
2883  2
2884  3
2885  0
2886  2
2887  1
2888  0
2889  4
2890  0
2891  1
2892  2
2893  0
2894  1
2895  2
2896  0
2897  0
2898  0
2899  0
2900  0
2901  0
2902  0
2903  0
2904  1
2905  1
2906  1
2907  0
2908  1
2909  2
2910  2
2911  1
2912  1
2913  0
2914  1
2915  0
2916  2
2917  1
2918  2
2919  3
2920  0
2921  0
2922  1
2923  0
2924  0
2925  0
2926  2
2927  0
2928  0
2929  3
2930  2
2931  1
2932  0
2933  1
2934  0
2935  1
2936  0
2937  0
2938  1
2939  0
2940  1
2941  0
2942  0
2943  1
2944  0
2945  0
2946  0
2947  0
2948  1
2949  0
2950  1
2951  0
2952  0
2953  0
2954  0
2955  1
2956  0
2957  0
2958  0
2959  2
2960  0
2961  0
2962  0
2963  0
2964  2
2965  0
2966  2
2967  1
2968  0
2969  0
2970  0
2971  1
2972  1
2973  0
2974  0
2975  1
2976  0
2977  0
2978  0
2979  1
2980  1
2981  0
2982  0
2983  1
2984  0
2985  0
2986  2
2987  0
2988  2
2989  0
2990  2
2991  1
2992  0
2993  1
2994  1
2995  0
2996  1
2997  1
2998  0
2999  0
3000  0
3001  0
3002  1
3003  0
3004  0
3005  0
3006  1
3007  2
3008  0
3009  0
3010  5
3011  0
3012  0
3013  0
3014  1
3015  0
3016  1
3017  1
3018  2
3019  1
3020  0
3021  1
3022  1
3023  2
3024  0
3025  0
3026  2
3027  0
3028  1
3029  1
3030  0
3031  0
3032  1
3033  0
3034  2
3035  1
3036  0
3037  0
3038  0
3039  0
3040  1
3041  2
3042  0
3043  0
3044  0
3045  2
3046  2
3047  0
3048  0
3049  1
3050  1
3051  0
3052  0
3053  0
3054  0
3055  1
3056  1
3057  1
3058  0
3059  0
3060  1
3061  0
3062  1
3063  0
3064  0
3065  1
3066  0
3067  0
3068  0
3069  0
3070  1
3071  0
3072  0
3073  1
3074  1
3075  0
3076  1
3077  0
3078  0
3079  1
3080  1
3081  5
3082  0
3083  1
3084  0
3085  1
3086  1
3087  0
3088  0
3089  0
3090  1
3091  0
3092  1
3093  4
3094  0
3095  0
3096  1
3097  0
3098  1
3099  0
3100  0
3101  0
3102  0
3103  0
3104  0
3105  0
3106  0
3107  0
3108  0
3109  3
3110  1
3111  0
3112  0
3113  0
3114  1
3115  1
3116  0
3117  0
3118  0
3119  0
3120  0
3121  1
3122  0
3123  0
3124  0
3125  0
3126  0
3127  1
3128  0
3129  1
3130  0
3131  1
3132  0
3133  1
3134  1
3135  1
3136  0
3137  1
3138  1
3139  0
3140  1
3141  0
3142  0
3143  1
3144  0
3145  1
3146  0
3147  0
3148  0
3149  0
3150  0
3151  1
3152  0
3153  1
3154  0
3155  0
3156  0
3157  0
3158  0
3159  1
3160  1
3161  3
3162  0
3163  1
3164  0
3165  1
3166  0
3167  0
3168  0
3169  0
3170  0
3171  0
3172  1
3173  0
3174  2
3175  0
3176  0
3177  0
3178  2
3179  0
3180  1
3181  0
3182  0
3183  0
3184  0
3185  1
3186  0
3187  0
3188  1
3189  0
3190  1
3191  0
3192  0
3193  1
3194  0
3195  0
3196  1
3197  0
3198  0
3199  0
3200  1
3201  1
3202  0
3203  0
3204  0
3205  0
3206  1
3207  0
3208  0
3209  0
3210  0
3211  2
3212  1
3213  0
3214  0
3215  0
3216  3
3217  0
3218  0
3219  0
3220  1
3221  1
3222  0
3223  1
3224  1
3225  0
3226  0
3227  0
3228  0
3229  0
3230  0
3231  0
3232  0
3233  0
3234  0
3235  1
3236  0
3237  0
3238  1
3239  0
3240  0
3241  1
3242  0
3243  1
3244  0
3245  0
3246  0
3247  0
3248  0
3249  1
3250  1
3251  0
3252  0
3253  0
3254  1
3255  1
3256  0
3257  0
3258  0
3259  1
3260  1
3261  0
3262  0
3263  0
3264  0
3265  0
3266  1
3267  1
3268  1
3269  1
3270  0
3271  1
3272  0
3273  0
3274  0
3275  0
3276  0
3277  1
3278  1
3279  0
3280  0
3281  0
3282  0
3283  0
3284  3
3285  0
3286  0
3287  0
3288  2
3289  1
3290  0
3291  0
3292  0
3293  0
3294  0
3295  0
3296  0
3297  0
3298  0
3299  0
3300  0
3301  1
3302  0
3303  0
3304  1
3305  0
3306  0
3307  0
3308  0
3309  3
3310  0
3311  0
3312  0
3313  0
3314  1
3315  0
3316  0
3317  0
3318  0
3319  0
3320  0
3321  0
3322  0
3323  0
3324  0
3325  0
3326  0
3327  0
3328  0
3329  0
3330  0
3331  0
3332  2
3333  0
3334  0
3335  1
3336  0
3337  1
3338  0
3339  0
3340  0
3341  0
3342  0
3343  0
3344  0
3345  0
3346  0
3347  0
3348  0
3349  0
3350  1
3351  0
3352  1
3353  0
3354  0
3355  2
3356  0
3357  0
3358  1
3359  0
3360  0
3361  0
3362  1
3363  1
3364  0
3365  1
3366  0
3367  1
3368  0
3369  0
3370  0
3371  0
3372  0
3373  0
3374  1
3375  1
3376  0
3377  0
3378  0
3379  1
3380  0
3381  0
3382  0
3383  0
3384  0
3385  0
3386  1
3387  0
3388  0
3389  1
3390  0
3391  0
3392  0
3393  1
3394  1
3395  0
3396  0
3397  0
3398  0
3399  1
3400  0
3401  0
3402  1
3403  1
3404  1
3405  1
3406  1
3407  0
3408  0
3409  0
3410  0
3411  0
3412  0
3413  1
3414  0
3415  0
3416  1
3417  0
3418  2
3419  0
3420  0
3421  0
3422  1
3423  1
3424  0
3425  1
3426  0
3427  0
3428  0
3429  0
3430  1
3431  1
3432  0
3433  0
3434  0
3435  2
3436  0
3437  0
3438  0
3439  0
3440  1
3441  0
3442  0
3443  0
3444  0
3445  0
3446  1
3447  0
3448  0
3449  1
3450  1
3451  0
3452  0
3453  2
3454  1
3455  1
3456  0
3457  1
3458  2
3459  0
3460  0
3461  2
3462  1
3463  0
3464  0
3465  1
3466  2
3467  1
3468  0
3469  0
3470  1
3471  0
3472  1
3473  0
3474  0
3475  0
3476  0
3477  1
3478  0
3479  0
3480  1
3481  0
3482  0
3483  0
3484  1
3485  0
3486  2
3487  0
3488  0
3489  1
3490  0
3491  0
3492  0
3493  0
3494  0
3495  0
3496  0
3497  1
3498  0
3499  0
3500  0
3501  0
3502  0
3503  0
3504  1
3505  0
3506  1
3507  0
3508  0
3509  0
3510  1
3511  0
3512  1
3513  2
3514  1
3515  0
3516  0
3517  0
3518  0
3519  0
3520  0
3521  1
3522  0
3523  1
3524  1
3525  0
3526  0
3527  1
3528  1
3529  0
3530  0
3531  0
3532  0
3533  0
3534  0
3535  1
3536  0
3537  0
3538  0
3539  0
3540  0
3541  0
3542  1
3543  0
3544  2
3545  0
3546  2
3547  2
3548  0
3549  0
3550  0
3551  0
3552  1
3553  0
3554  1
3555  1
3556  0
3557  0
3558  1
3559  1
3560  0
3561  1
3562  0
3563  1
3564  0
3565  2
3566  0
3567  0
3568  0
3569  0
3570  1
3571  3
3572  0
3573  0
3574  1
3575  0
3576  0
3577  1
3578  0
3579  0
3580  0
3581  0
3582  2
3583  0
3584  0
3585  0
3586  0
3587  2
3588  2
3589  0
3590  0
3591  1
3592  0
3593  2
3594  0
3595  2
3596  2
3597  1
3598  0
3599  0
3600  0
3601  0
3602  0
3603  1
3604  0
3605  0
3606  0
3607  0
3608  0
3609  1
3610  0
3611  0
3612  0
3613  0
3614  0
3615  0
3616  0
3617  0
3618  3
3619  0
3620  0
3621  1
3622  0
3623  1
3624  0
3625  0
3626  3
3627  1
3628  0
3629  0
3630  1
3631  1
3632  2
3633  1
3634  1
3635  1
3636  0
3637  0
3638  1
3639  1
3640  0
3641  1
3642  1
3643  1
3644  0
3645  0
3646  0
3647  1
3648  1
3649  0
3650  1
3651  0
3652  1
3653  0
3654  1
3655  0
3656  0
3657  0
3658  1
3659  0
3660  0
3661  0
3662  0
3663  1
3664  0
3665  0
3666  0
3667  1
3668  1
3669  0
3670  0
3671  2
3672  0
3673  0
3674  1
3675  0
3676  1
3677  0
3678  0
3679  0
3680  0
3681  0
3682  3
3683  1
3684  0
3685  1
3686  0
3687  0
3688  0
3689  0
3690  0
3691  1
3692  0
3693  0
3694  0
3695  1
3696  0
3697  2
3698  0
3699  0
3700  1
3701  0
3702  0
3703  0
3704  0
3705  1
3706  1
3707  0
3708  1
3709  0
3710  1
3711  0
3712  0
3713  0
3714  1
3715  0
3716  1
3717  0
3718  0
3719  0
3720  0
3721  0
3722  1
3723  0
3724  1
3725  0
3726  0
3727  0
3728  0
3729  0
3730  1
3731  1
3732  0
3733  2
3734  0
3735  0
3736  0
3737  0
3738  0
3739  0
3740  0
3741  0
3742  0
3743  0
3744  0
3745  0
3746  1
3747  0
3748  1
3749  1
3750  0
3751  2
3752  0
3753  0
3754  0
3755  0
3756  0
3757  0
3758  0
3759  1
3760  0
3761  0
3762  2
3763  0
3764  1
3765  0
3766  1
3767  0
3768  0
3769  0
3770  1
3771  0
3772  1
3773  0
3774  1
3775  0
3776  1
3777  0
3778  1
3779  0
3780  0
3781  1
3782  0
3783  1
3784  0
3785  0
3786  1
3787  1
3788  0
3789  2
3790  2
3791  0
3792  0
3793  2
3794  1
3795  0
3796  0
3797  0
3798  0
3799  0
3800  0
3801  0
3802  1
3803  0
3804  0
3805  0
3806  0
3807  0
3808  0
3809  1
3810  0
3811  1
3812  0
3813  0
3814  1
3815  1
3816  0
3817  0
3818  0
3819  1
3820  0
3821  1
3822  0
3823  0
3824  0
3825  0
3826  0
3827  1
3828  0
3829  3
3830  0
3831  0
3832  0
3833  0
3834  0
3835  0
3836  0
3837  0
3838  1
3839  1
3840  0
3841  0
3842  0
3843  0
3844  0
3845  0
3846  0
3847  0
3848  0
3849  0
3850  0
3851  0
3852  0
3853  0
3854  0
3855  0
3856  0
3857  0
3858  0
3859  0
3860  0
3861  0
3862  0
3863  0
3864  0
3865  0
3866  0
3867  0
3868  0
3869  0
3870  0
3871  0
3872  0
3873  0
3874  0
3875  0
3876  0
3877  0
3878  0
3879  0
3880  0
3881  0
3882  0
3883  0
3884  0
3885  0
3886  0
3887  0
3888  0
3889  0
3890  0
3891  0
3892  0
3893  0
3894  0
3895  0
3896  0
3897  0
3898  0
3899  0
3900  0
3901  0
3902  0
3903  0
3904  0
3905  0
3906  0
3907  0
3908  0
3909  0
3910  0
3911  0
3912  0
3913  0
3914  0
3915  0
3916  0
3917  0
3918  0
3919  0
3920  0
3921  0
3922  0
3923  0
3924  0
3925  0
3926  0
3927  0
3928  0
3929  0
3930  0
3931  0
3932  0
3933  0
3934  0
3935  0
3936  0
3937  0
3938  0
3939  0
3940  0
3941  0
3942  0
3943  0
3944  0
3945  0
3946  0
3947  0
3948  0
3949  0
3950  0
3951  0
3952  0
3953  0
3954  0
3955  0
3956  0
3957  0
3958  0
3959  0
3960  0
3961  0
3962  0
3963  0
3964  0
3965  0
3966  0
3967  0
3968  0
3969  0
3970  0
3971  0
3972  0
3973  0
3974  0
3975  0
3976  0
3977  0
3978  0
3979  0
3980  0
3981  0
3982  0
3983  0
3984  0
3985  0
3986  0
3987  0
3988  0
3989  0
3990  0
3991  0
3992  0
3993  0
3994  0
3995  0
3996  0
3997  0
3998  0
3999  0
4000  0
4001  0
4002  0
4003  0
4004  0
4005  0
4006  0
4007  0
4008  0
4009  0
4010  0
4011  0
4012  0
4013  0
4014  0
4015  0
4016  0
4017  0
4018  0
4019  0
4020  0
4021  0
4022  0
4023  0
4024  0
4025  0
4026  0
4027  0
4028  0
4029  0
4030  0
4031  0
4032  0
4033  0
4034  0
4035  0
4036  0
4037  0
4038  0
4039  0
4040  0
4041  0
4042  0
4043  0
4044  0
4045  0
4046  0
4047  0
4048  0
4049  0
4050  0
4051  0
4052  0
4053  0
4054  0
4055  0
4056  0
4057  0
4058  0
4059  0
4060  0
4061  0
4062  0
4063  0
4064  0
4065  0
4066  0
4067  0
4068  0
4069  0
4070  0
4071  0
4072  0
4073  0
4074  0
4075  0
4076  0
4077  0
4078  0
4079  0
4080  0
4081  0
4082  0
4083  0
4084  0
4085  0
4086  0
4087  0
4088  0
4089  0
4090  0
4091  0
4092  0
4093  0
4094  0
4095  0
