0  100
1  107
2  135
3  172
4  219
5  272
6  327
7  351
8  401
9  403
10  491
11  552
12  585
13  624
14  589
15  627
16  661
17  612
18  587
19  592
20  579
21  534
22  488
23  435
24  410
25  335
26  299
27  260
28  195
29  154
30  144
31  131
32  84
33  84
34  49
35  61
36  32
37  21
38  20
39  17
40  10
41  9
42  7
43  5
44  3
45  4
46  1
47  0
48  0
49  0
50  0
51  1
52  0
53  0
54  0
55  0
56  0
57  0
58  0
59  0
60  0
61  0
62  0
63  0
64  0
65  0
66  0
67  0
68  0
69  0
70  0
71  0
72  0
73  0
74  0
75  0
76  0
77  0
78  0
79  0
80  0
81  0
82  0
83  0
84  0
85  0
86  0
87  0
88  0
89  0
90  0
91  0
92  0
93  0
94  0
95  0
96  0
97  0
98  0
99  0
100  0
101  0
102  0
103  0
104  0
105  0
106  0
107  0
108  0
109  0
110  0
111  0
112  0
113  0
114  0
115  0
116  0
117  0
118  0
119  0
120  0
121  0
122  0
123  0
124  0
125  0
126  0
127  0
128  0
129  0
130  1
131  0
132  0
133  0
134  0
135  0
136  0
137  0
138  0
139  0
140  0
141  0
142  0
143  0
144  0
145  0
146  0
147  0
148  0
149  0
150  0
151  0
152  0
153  0
154  0
155  0
156  0
157  0
158  0
159  0
160  0
161  0
162  0
163  0
164  0
165  0
166  0
167  0
168  0
169  0
170  0
171  0
172  0
173  0
174  0
175  0
176  0
177  0
178  0
179  0
180  0
181  0
182  0
183  0
184  0
185  0
186  0
187  0
188  0
189  0
190  0
191  1
192  0
193  0
194  1
195  1
196  1
197  1
198  2
199  5
200  7
201  4
202  14
203  10
204  13
205  10
206  13
207  23
208  12
209  23
210  22
211  34
212  20
213  30
214  27
215  40
216  35
217  23
218  24
219  37
220  23
221  30
222  33
223  26
224  24
225  33
226  29
227  30
228  23
229  25
230  23
231  16
232  19
233  19
234  13
235  12
236  19
237  7
238  10
239  10
240  9
241  6
242  10
243  9
244  10
245  7
246  9
247  11
248  5
249  5
250  8
251  10
252  7
253  9
254  6
255  5
256  7
257  8
258  9
259  8
260  6
261  8
262  2
263  9
264  7
265  4
266  4
267  9
268  6
269  7
270  5
271  2
272  6
273  3
274  9
275  6
276  18
277  3
278  4
279  6
280  9
281  4
282  7
283  7
284  11
285  7
286  4
287  7
288  3
289  6
290  6
291  7
292  5
293  8
294  7
295  8
296  8
297  8
298  5
299  9
300  4
301  9
302  9
303  6
304  6
305  8
306  11
307  3
308  6
309  5
310  3
311  6
312  5
313  9
314  8
315  5
316  6
317  7
318  7
319  5
320  8
321  6
322  3
323  7
324  2
325  7
326  5
327  6
328  6
329  10
330  9
331  6
332  8
333  5
334  8
335  10
336  3
337  6
338  11
339  13
340  11
341  6
342  7
343  7
344  10
345  2
346  6
347  7
348  8
349  9
350  12
351  5
352  4
353  7
354  7
355  7
356  5
357  6
358  7
359  6
360  6
361  12
362  11
363  6
364  3
365  4
366  5
367  7
368  9
369  6
370  4
371  4
372  8
373  6
374  13
375  10
376  8
377  8
378  5
379  4
380  3
381  4
382  14
383  8
384  2
385  8
386  11
387  5
388  8
389  9
390  9
391  7
392  2
393  13
394  0
395  7
396  4
397  11
398  7
399  9
400  7
401  9
402  8
403  6
404  5
405  7
406  10
407  5
408  6
409  4
410  12
411  6
412  7
413  9
414  12
415  11
416  11
417  5
418  2
419  3
420  10
421  7
422  4
423  7
424  4
425  7
426  10
427  9
428  7
429  8
430  6
431  10
432  6
433  14
434  6
435  10
436  6
437  4
438  5
439  8
440  5
441  5
442  8
443  6
444  7
445  4
446  8
447  6
448  11
449  5
450  6
451  6
452  11
453  7
454  9
455  8
456  9
457  10
458  8
459  5
460  8
461  9
462  10
463  7
464  6
465  8
466  6
467  10
468  6
469  7
470  10
471  8
472  7
473  7
474  10
475  7
476  8
477  7
478  8
479  8
480  4
481  7
482  10
483  10
484  6
485  5
486  9
487  2
488  6
489  6
490  5
491  8
492  8
493  9
494  6
495  3
496  4
497  6
498  6
499  6
500  3
501  12
502  8
503  6
504  7
505  7
506  6
507  5
508  7
509  7
510  8
511  5
512  7
513  6
514  7
515  10
516  6
517  2
518  3
519  6
520  7
521  7
522  5
523  5
524  11
525  5
526  12
527  6
528  6
529  6
530  13
531  8
532  12
533  2
534  8
535  5
536  2
537  6
538  6
539  3
540  7
541  4
542  10
543  9
544  6
545  6
546  6
547  7
548  12
549  6
550  6
551  7
552  11
553  8
554  12
555  8
556  12
557  9
558  4
559  4
560  11
561  7
562  11
563  6
564  10
565  11
566  7
567  4
568  4
569  5
570  11
571  6
572  4
573  4
574  6
575  10
576  7
577  4
578  4
579  16
580  6
581  6
582  5
583  5
584  2
585  2
586  10
587  10
588  4
589  7
590  5
591  6
592  8
593  5
594  15
595  8
596  9
597  10
598  13
599  5
600  9
601  7
602  10
603  6
604  6
605  5
606  9
607  9
608  10
609  9
610  3
611  9
612  9
613  3
614  6
615  9
616  7
617  9
618  6
619  3
620  5
621  8
622  9
623  9
624  10
625  3
626  9
627  7
628  5
629  5
630  6
631  9
632  4
633  10
634  5
635  6
636  7
637  6
638  10
639  13
640  9
641  8
642  10
643  5
644  3
645  8
646  6
647  7
648  4
649  2
650  5
651  6
652  7
653  6
654  10
655  9
656  7
657  7
658  8
659  5
660  6
661  5
662  4
663  9
664  4
665  4
666  4
667  5
668  7
669  13
670  6
671  3
672  11
673  9
674  11
675  11
676  8
677  4
678  9
679  10
680  4
681  4
682  8
683  10
684  10
685  8
686  9
687  8
688  5
689  7
690  8
691  5
692  8
693  7
694  2
695  8
696  10
697  6
698  11
699  5
700  1
701  10
702  8
703  8
704  7
705  9
706  7
707  5
708  5
709  4
710  6
711  11
712  4
713  6
714  11
715  8
716  5
717  8
718  7
719  2
720  8
721  8
722  7
723  6
724  5
725  6
726  9
727  4
728  8
729  7
730  3
731  9
732  8
733  8
734  6
735  8
736  3
737  6
738  9
739  12
740  2
741  6
742  6
743  5
744  4
745  6
746  6
747  6
748  6
749  11
750  16
751  5
752  9
753  9
754  13
755  6
756  7
757  5
758  7
759  9
760  9
761  7
762  5
763  6
764  8
765  8
766  4
767  4
768  7
769  11
770  13
771  11
772  6
773  6
774  7
775  7
776  3
777  9
778  8
779  6
780  11
781  8
782  11
783  5
784  9
785  8
786  8
787  10
788  11
789  7
790  7
791  4
792  3
793  9
794  9
795  6
796  3
797  9
798  8
799  9
800  7
801  11
802  8
803  3
804  10
805  3
806  7
807  11
808  8
809  9
810  9
811  4
812  4
813  12
814  12
815  4
816  6
817  6
818  7
819  9
820  8
821  9
822  11
823  6
824  9
825  8
826  7
827  6
828  10
829  7
830  5
831  6
832  6
833  11
834  5
835  11
836  9
837  7
838  12
839  6
840  9
841  7
842  6
843  6
844  8
845  8
846  6
847  7
848  7
849  3
850  9
851  7
852  4
853  5
854  6
855  8
856  8
857  4
858  7
859  7
860  5
861  5
862  6
863  13
864  7
865  7
866  8
867  6
868  10
869  4
870  6
871  5
872  8
873  10
874  9
875  10
876  5
877  13
878  6
879  16
880  10
881  5
882  7
883  13
884  8
885  7
886  7
887  7
888  4
889  6
890  6
891  7
892  3
893  7
894  6
895  7
896  11
897  6
898  6
899  9
900  1
901  8
902  12
903  7
904  9
905  12
906  14
907  7
908  5
909  7
910  7
911  5
912  6
913  6
914  8
915  10
916  7
917  8
918  7
919  4
920  10
921  8
922  6
923  5
924  9
925  11
926  6
927  8
928  11
929  7
930  12
931  7
932  8
933  9
934  10
935  9
936  3
937  5
938  5
939  11
940  9
941  10
942  3
943  14
944  9
945  6
946  11
947  7
948  4
949  7
950  6
951  9
952  13
953  5
954  5
955  9
956  2
957  6
958  7
959  13
960  4
961  6
962  8
963  7
964  9
965  9
966  5
967  5
968  10
969  11
970  6
971  7
972  10
973  5
974  11
975  8
976  9
977  9
978  8
979  11
980  5
981  10
982  13
983  9
984  7
985  7
986  10
987  11
988  10
989  12
990  12
991  10
992  6
993  8
994  7
995  4
996  6
997  12
998  5
999  8
1000  10
1001  17
1002  14
1003  5
1004  7
1005  15
1006  7
1007  7
1008  9
1009  14
1010  13
1011  8
1012  9
1013  5
1014  12
1015  11
1016  7
1017  8
1018  9
1019  9
1020  10
1021  4
1022  14
1023  6
1024  7
1025  11
1026  13
1027  13
1028  9
1029  9
1030  12
1031  5
1032  4
1033  9
1034  16
1035  9
1036  8
1037  12
1038  7
1039  12
1040  7
1041  11
1042  9
1043  11
1044  9
1045  14
1046  10
1047  8
1048  10
1049  5
1050  13
1051  11
1052  10
1053  7
1054  9
1055  13
1056  9
1057  8
1058  12
1059  15
1060  9
1061  11
1062  7
1063  16
1064  17
1065  14
1066  4
1067  9
1068  9
1069  8
1070  12
1071  11
1072  10
1073  13
1074  13
1075  13
1076  11
1077  12
1078  12
1079  10
1080  9
1081  16
1082  14
1083  11
1084  9
1085  8
1086  12
1087  13
1088  9
1089  13
1090  12
1091  11
1092  9
1093  7
1094  4
1095  12
1096  9
1097  16
1098  8
1099  14
1100  9
1101  13
1102  9
1103  11
1104  19
1105  14
1106  6
1107  9
1108  10
1109  12
1110  10
1111  10
1112  19
1113  7
1114  16
1115  7
1116  10
1117  14
1118  10
1119  7
1120  13
1121  17
1122  12
1123  8
1124  15
1125  8
1126  12
1127  7
1128  14
1129  10
1130  12
1131  13
1132  11
1133  14
1134  10
1135  10
1136  12
1137  14
1138  19
1139  10
1140  7
1141  8
1142  6
1143  16
1144  14
1145  12
1146  13
1147  17
1148  16
1149  13
1150  12
1151  18
1152  24
1153  7
1154  15
1155  14
1156  17
1157  16
1158  10
1159  18
1160  12
1161  15
1162  15
1163  10
1164  11
1165  13
1166  12
1167  11
1168  15
1169  13
1170  12
1171  16
1172  13
1173  12
1174  15
1175  15
1176  13
1177  9
1178  12
1179  16
1180  13
1181  18
1182  10
1183  8
1184  11
1185  17
1186  10
1187  19
1188  15
1189  11
1190  22
1191  13
1192  16
1193  10
1194  9
1195  20
1196  14
1197  13
1198  13
1199  12
1200  20
1201  10
1202  10
1203  21
1204  14
1205  16
1206  12
1207  19
1208  16
1209  12
1210  13
1211  17
1212  6
1213  14
1214  22
1215  18
1216  12
1217  13
1218  14
1219  15
1220  7
1221  17
1222  15
1223  9
1224  17
1225  13
1226  14
1227  19
1228  15
1229  23
1230  19
1231  14
1232  14
1233  14
1234  17
1235  15
1236  19
1237  9
1238  14
1239  16
1240  11
1241  9
1242  18
1243  12
1244  12
1245  18
1246  12
1247  17
1248  20
1249  24
1250  12
1251  24
1252  24
1253  9
1254  22
1255  16
1256  17
1257  22
1258  14
1259  25
1260  15
1261  15
1262  12
1263  14
1264  15
1265  13
1266  16
1267  21
1268  15
1269  14
1270  20
1271  27
1272  14
1273  8
1274  18
1275  21
1276  18
1277  16
1278  22
1279  20
1280  17
1281  18
1282  21
1283  16
1284  17
1285  22
1286  17
1287  19
1288  13
1289  24
1290  16
1291  21
1292  14
1293  17
1294  20
1295  20
1296  25
1297  19
1298  29
1299  25
1300  22
1301  21
1302  22
1303  15
1304  21
1305  18
1306  19
1307  17
1308  19
1309  27
1310  23
1311  14
1312  27
1313  15
1314  20
1315  17
1316  19
1317  16
1318  20
1319  19
1320  21
1321  23
1322  21
1323  22
1324  22
1325  14
1326  15
1327  14
1328  18
1329  34
1330  21
1331  22
1332  19
1333  18
1334  22
1335  22
1336  15
1337  20
1338  35
1339  16
1340  22
1341  28
1342  18
1343  27
1344  14
1345  16
1346  28
1347  20
1348  17
1349  19
1350  22
1351  23
1352  20
1353  22
1354  23
1355  22
1356  21
1357  24
1358  25
1359  13
1360  19
1361  26
1362  23
1363  12
1364  21
1365  24
1366  27
1367  23
1368  23
1369  13
1370  22
1371  25
1372  19
1373  26
1374  15
1375  19
1376  26
1377  20
1378  26
1379  19
1380  28
1381  32
1382  17
1383  22
1384  29
1385  26
1386  22
1387  26
1388  21
1389  32
1390  22
1391  27
1392  14
1393  27
1394  22
1395  26
1396  29
1397  20
1398  22
1399  25
1400  20
1401  25
1402  21
1403  22
1404  22
1405  16
1406  23
1407  25
1408  28
1409  26
1410  22
1411  29
1412  26
1413  23
1414  17
1415  18
1416  27
1417  31
1418  23
1419  27
1420  18
1421  18
1422  31
1423  16
1424  33
1425  24
1426  27
1427  30
1428  30
1429  19
1430  19
1431  21
1432  22
1433  31
1434  21
1435  25
1436  18
1437  17
1438  24
1439  24
1440  33
1441  21
1442  17
1443  18
1444  23
1445  24
1446  25
1447  32
1448  26
1449  28
1450  28
1451  26
1452  25
1453  25
1454  31
1455  32
1456  19
1457  22
1458  26
1459  25
1460  30
1461  21
1462  29
1463  21
1464  25
1465  26
1466  28
1467  16
1468  37
1469  18
1470  35
1471  35
1472  24
1473  34
1474  42
1475  26
1476  27
1477  29
1478  27
1479  25
1480  29
1481  26
1482  28
1483  26
1484  27
1485  21
1486  23
1487  31
1488  30
1489  18
1490  31
1491  27
1492  20
1493  32
1494  28
1495  26
1496  30
1497  24
1498  25
1499  33
1500  26
1501  31
1502  20
1503  36
1504  23
1505  21
1506  26
1507  24
1508  25
1509  26
1510  28
1511  26
1512  37
1513  36
1514  36
1515  28
1516  40
1517  33
1518  29
1519  26
1520  28
1521  39
1522  36
1523  30
1524  24
1525  35
1526  24
1527  24
1528  26
1529  34
1530  37
1531  27
1532  35
1533  27
1534  37
1535  25
1536  40
1537  28
1538  33
1539  33
1540  40
1541  27
1542  36
1543  27
1544  34
1545  25
1546  39
1547  39
1548  39
1549  35
1550  30
1551  32
1552  20
1553  24
1554  28
1555  28
1556  36
1557  31
1558  26
1559  29
1560  32
1561  35
1562  31
1563  29
1564  29
1565  28
1566  41
1567  34
1568  33
1569  34
1570  41
1571  27
1572  36
1573  40
1574  35
1575  31
1576  41
1577  28
1578  37
1579  36
1580  30
1581  37
1582  39
1583  36
1584  39
1585  22
1586  23
1587  33
1588  33
1589  35
1590  36
1591  32
1592  29
1593  27
1594  35
1595  29
1596  30
1597  41
1598  39
1599  33
1600  42
1601  27
1602  28
1603  30
1604  32
1605  25
1606  24
1607  30
1608  42
1609  41
1610  27
1611  30
1612  41
1613  34
1614  37
1615  38
1616  22
1617  33
1618  31
1619  27
1620  43
1621  41
1622  40
1623  40
1624  44
1625  43
1626  24
1627  31
1628  24
1629  28
1630  43
1631  46
1632  37
1633  33
1634  31
1635  33
1636  33
1637  40
1638  32
1639  34
1640  46
1641  33
1642  33
1643  36
1644  28
1645  34
1646  48
1647  26
1648  44
1649  45
1650  32
1651  28
1652  39
1653  39
1654  36
1655  28
1656  43
1657  41
1658  42
1659  45
1660  47
1661  32
1662  35
1663  40
1664  35
1665  40
1666  29
1667  35
1668  35
1669  26
1670  30
1671  34
1672  39
1673  37
1674  27
1675  44
1676  47
1677  42
1678  42
1679  49
1680  31
1681  31
1682  31
1683  40
1684  41
1685  35
1686  47
1687  42
1688  42
1689  45
1690  31
1691  50
1692  46
1693  40
1694  35
1695  41
1696  54
1697  42
1698  45
1699  37
1700  37
1701  32
1702  38
1703  47
1704  44
1705  37
1706  36
1707  35
1708  45
1709  40
1710  43
1711  51
1712  50
1713  39
1714  52
1715  48
1716  48
1717  47
1718  34
1719  28
1720  45
1721  43
1722  29
1723  46
1724  55
1725  42
1726  39
1727  48
1728  38
1729  39
1730  43
1731  38
1732  44
1733  44
1734  39
1735  51
1736  53
1737  42
1738  55
1739  64
1740  41
1741  46
1742  39
1743  53
1744  39
1745  42
1746  44
1747  42
1748  28
1749  33
1750  44
1751  40
1752  39
1753  45
1754  36
1755  45
1756  38
1757  37
1758  51
1759  43
1760  52
1761  52
1762  45
1763  35
1764  40
1765  51
1766  42
1767  41
1768  40
1769  39
1770  38
1771  40
1772  44
1773  45
1774  52
1775  41
1776  44
1777  44
1778  60
1779  50
1780  42
1781  43
1782  33
1783  39
1784  46
1785  42
1786  41
1787  44
1788  42
1789  40
1790  57
1791  53
1792  50
1793  41
1794  45
1795  47
1796  51
1797  45
1798  51
1799  46
1800  57
1801  39
1802  42
1803  44
1804  36
1805  45
1806  48
1807  53
1808  41
1809  37
1810  32
1811  36
1812  42
1813  42
1814  57
1815  47
1816  52
1817  54
1818  42
1819  51
1820  44
1821  42
1822  55
1823  65
1824  46
1825  52
1826  44
1827  69
1828  49
1829  46
1830  42
1831  56
1832  41
1833  45
1834  55
1835  46
1836  44
1837  47
1838  39
1839  51
1840  48
1841  43
1842  51
1843  55
1844  51
1845  52
1846  45
1847  39
1848  52
1849  48
1850  59
1851  63
1852  46
1853  51
1854  50
1855  42
1856  56
1857  39
1858  53
1859  44
1860  47
1861  45
1862  56
1863  57
1864  56
1865  68
1866  72
1867  47
1868  60
1869  52
1870  45
1871  60
1872  47
1873  50
1874  46
1875  39
1876  65
1877  42
1878  46
1879  58
1880  52
1881  56
1882  48
1883  51
1884  50
1885  56
1886  57
1887  64
1888  60
1889  48
1890  45
1891  37
1892  47
1893  52
1894  47
1895  54
1896  56
1897  50
1898  45
1899  53
1900  41
1901  52
1902  54
1903  52
1904  54
1905  62
1906  42
1907  53
1908  50
1909  49
1910  56
1911  60
1912  53
1913  47
1914  51
1915  49
1916  57
1917  53
1918  56
1919  47
1920  52
1921  58
1922  61
1923  46
1924  55
1925  51
1926  54
1927  55
1928  49
1929  51
1930  49
1931  56
1932  57
1933  62
1934  48
1935  47
1936  57
1937  45
1938  66
1939  63
1940  53
1941  52
1942  47
1943  65
1944  62
1945  55
1946  52
1947  59
1948  55
1949  57
1950  61
1951  68
1952  57
1953  66
1954  50
1955  49
1956  52
1957  57
1958  52
1959  52
1960  42
1961  47
1962  55
1963  51
1964  48
1965  58
1966  53
1967  59
1968  47
1969  62
1970  53
1971  66
1972  44
1973  58
1974  56
1975  49
1976  47
1977  46
1978  50
1979  61
1980  60
1981  56
1982  60
1983  69
1984  53
1985  59
1986  70
1987  57
1988  61
1989  60
1990  56
1991  55
1992  64
1993  47
1994  50
1995  58
1996  49
1997  56
1998  47
1999  52
2000  60
2001  61
2002  41
2003  46
2004  48
2005  67
2006  46
2007  55
2008  52
2009  62
2010  45
2011  54
2012  44
2013  59
2014  69
2015  52
2016  54
2017  58
2018  55
2019  44
2020  58
2021  64
2022  50
2023  67
2024  59
2025  62
2026  60
2027  53
2028  64
2029  57
2030  48
2031  54
2032  45
2033  54
2034  69
2035  59
2036  45
2037  64
2038  51
2039  56
2040  58
2041  55
2042  49
2043  66
2044  56
2045  59
2046  56
2047  65
2048  58
2049  58
2050  57
2051  67
2052  63
2053  48
2054  42
2055  53
2056  65
2057  58
2058  58
2059  59
2060  44
2061  51
2062  74
2063  67
2064  63
2065  66
2066  75
2067  52
2068  61
2069  52
2070  63
2071  62
2072  66
2073  50
2074  60
2075  60
2076  58
2077  62
2078  57
2079  71
2080  53
2081  57
2082  62
2083  57
2084  47
2085  55
2086  62
2087  62
2088  66
2089  72
2090  50
2091  65
2092  67
2093  59
2094  47
2095  68
2096  71
2097  66
2098  63
2099  62
2100  68
2101  55
2102  60
2103  63
2104  61
2105  58
2106  52
2107  48
2108  65
2109  58
2110  59
2111  63
2112  80
2113  55
2114  53
2115  62
2116  72
2117  54
2118  60
2119  65
2120  59
2121  62
2122  72
2123  54
2124  64
2125  63
2126  57
2127  58
2128  61
2129  61
2130  56
2131  65
2132  61
2133  67
2134  64
2135  56
2136  61
2137  55
2138  69
2139  46
2140  62
2141  55
2142  64
2143  61
2144  56
2145  64
2146  68
2147  80
2148  73
2149  64
2150  68
2151  52
2152  65
2153  51
2154  76
2155  55
2156  70
2157  68
2158  56
2159  67
2160  68
2161  69
2162  57
2163  60
2164  67
2165  53
2166  57
2167  67
2168  59
2169  49
2170  60
2171  54
2172  55
2173  68
2174  61
2175  66
2176  72
2177  67
2178  57
2179  74
2180  65
2181  69
2182  60
2183  63
2184  55
2185  65
2186  59
2187  64
2188  70
2189  43
2190  53
2191  71
2192  75
2193  69
2194  75
2195  56
2196  68
2197  70
2198  65
2199  61
2200  70
2201  59
2202  64
2203  58
2204  62
2205  60
2206  58
2207  53
2208  65
2209  62
2210  59
2211  69
2212  60
2213  53
2214  51
2215  86
2216  52
2217  61
2218  62
2219  55
2220  67
2221  61
2222  66
2223  60
2224  63
2225  56
2226  69
2227  71
2228  68
2229  62
2230  62
2231  76
2232  68
2233  57
2234  57
2235  57
2236  66
2237  57
2238  65
2239  60
2240  70
2241  61
2242  84
2243  61
2244  81
2245  60
2246  56
2247  72
2248  63
2249  63
2250  68
2251  72
2252  64
2253  66
2254  75
2255  59
2256  68
2257  61
2258  76
2259  61
2260  70
2261  56
2262  57
2263  67
2264  51
2265  61
2266  70
2267  65
2268  49
2269  54
2270  63
2271  59
2272  67
2273  71
2274  70
2275  78
2276  60
2277  70
2278  73
2279  66
2280  64
2281  73
2282  64
2283  81
2284  69
2285  76
2286  76
2287  84
2288  63
2289  62
2290  64
2291  60
2292  75
2293  63
2294  74
2295  59
2296  57
2297  70
2298  66
2299  68
2300  64
2301  74
2302  67
2303  74
2304  69
2305  66
2306  63
2307  72
2308  71
2309  63
2310  62
2311  67
2312  73
2313  52
2314  87
2315  68
2316  75
2317  75
2318  61
2319  68
2320  67
2321  66
2322  68
2323  69
2324  70
2325  70
2326  53
2327  63
2328  56
2329  56
2330  69
2331  63
2332  57
2333  66
2334  68
2335  69
2336  73
2337  62
2338  66
2339  65
2340  60
2341  64
2342  57
2343  67
2344  65
2345  71
2346  57
2347  55
2348  72
2349  59
2350  63
2351  62
2352  61
2353  69
2354  67
2355  54
2356  65
2357  60
2358  51
2359  55
2360  70
2361  62
2362  65
2363  55
2364  70
2365  57
2366  69
2367  70
2368  57
2369  62
2370  67
2371  68
2372  56
2373  70
2374  62
2375  57
2376  57
2377  64
2378  43
2379  68
2380  81
2381  71
2382  58
2383  54
2384  75
2385  57
2386  81
2387  62
2388  62
2389  49
2390  60
2391  61
2392  63
2393  62
2394  59
2395  52
2396  60
2397  63
2398  70
2399  64
2400  67
2401  56
2402  74
2403  59
2404  67
2405  56
2406  61
2407  54
2408  61
2409  60
2410  67
2411  70
2412  57
2413  64
2414  57
2415  58
2416  54
2417  62
2418  72
2419  53
2420  59
2421  63
2422  58
2423  81
2424  61
2425  57
2426  74
2427  77
2428  61
2429  65
2430  61
2431  63
2432  70
2433  54
2434  84
2435  77
2436  70
2437  71
2438  59
2439  52
2440  67
2441  67
2442  70
2443  48
2444  53
2445  67
2446  43
2447  75
2448  73
2449  68
2450  62
2451  68
2452  56
2453  49
2454  60
2455  67
2456  73
2457  63
2458  60
2459  70
2460  76
2461  51
2462  62
2463  69
2464  68
2465  56
2466  65
2467  68
2468  64
2469  51
2470  60
2471  71
2472  64
2473  68
2474  63
2475  59
2476  51
2477  68
2478  65
2479  52
2480  65
2481  71
2482  61
2483  61
2484  65
2485  66
2486  56
2487  66
2488  50
2489  55
2490  88
2491  65
2492  69
2493  63
2494  56
2495  51
2496  52
2497  52
2498  60
2499  62
2500  54
2501  62
2502  55
2503  63
2504  54
2505  67
2506  65
2507  59
2508  56
2509  61
2510  59
2511  56
2512  61
2513  62
2514  76
2515  59
2516  53
2517  35
2518  64
2519  56
2520  51
2521  49
2522  55
2523  58
2524  47
2525  53
2526  58
2527  48
2528  49
2529  56
2530  49
2531  66
2532  46
2533  45
2534  54
2535  53
2536  48
2537  66
2538  52
2539  54
2540  60
2541  48
2542  56
2543  54
2544  52
2545  51
2546  52
2547  54
2548  54
2549  42
2550  50
2551  60
2552  54
2553  41
2554  64
2555  39
2556  53
2557  56
2558  44
2559  43
2560  58
2561  63
2562  48
2563  54
2564  61
2565  53
2566  42
2567  45
2568  44
2569  57
2570  53
2571  60
2572  46
2573  50
2574  55
2575  51
2576  56
2577  54
2578  42
2579  57
2580  41
2581  47
2582  58
2583  50
2584  42
2585  46
2586  51
2587  35
2588  49
2589  54
2590  52
2591  45
2592  53
2593  59
2594  38
2595  40
2596  54
2597  50
2598  45
2599  55
2600  57
2601  53
2602  53
2603  35
2604  48
2605  39
2606  43
2607  56
2608  50
2609  48
2610  41
2611  58
2612  58
2613  54
2614  34
2615  52
2616  40
2617  40
2618  43
2619  44
2620  54
2621  50
2622  51
2623  42
2624  44
2625  33
2626  37
2627  33
2628  40
2629  40
2630  49
2631  45
2632  52
2633  38
2634  37
2635  33
2636  40
2637  51
2638  54
2639  65
2640  59
2641  39
2642  50
2643  54
2644  45
2645  52
2646  47
2647  56
2648  36
2649  37
2650  40
2651  50
2652  41
2653  46
2654  33
2655  37
2656  44
2657  29
2658  50
2659  41
2660  43
2661  39
2662  38
2663  48
2664  37
2665  41
2666  38
2667  37
2668  35
2669  38
2670  25
2671  34
2672  46
2673  45
2674  40
2675  46
2676  34
2677  40
2678  44
2679  38
2680  40
2681  36
2682  39
2683  50
2684  32
2685  24
2686  48
2687  33
2688  37
2689  37
2690  28
2691  26
2692  30
2693  35
2694  30
2695  33
2696  38
2697  39
2698  32
2699  38
2700  35
2701  43
2702  34
2703  35
2704  36
2705  37
2706  36
2707  37
2708  34
2709  21
2710  41
2711  25
2712  27
2713  31
2714  35
2715  32
2716  34
2717  30
2718  39
2719  29
2720  30
2721  29
2722  41
2723  32
2724  35
2725  31
2726  36
2727  30
2728  32
2729  38
2730  31
2731  40
2732  36
2733  28
2734  22
2735  39
2736  30
2737  37
2738  22
2739  27
2740  30
2741  27
2742  19
2743  30
2744  32
2745  18
2746  22
2747  33
2748  34
2749  25
2750  18
2751  17
2752  27
2753  22
2754  24
2755  25
2756  24
2757  28
2758  23
2759  21
2760  22
2761  23
2762  14
2763  23
2764  24
2765  23
2766  31
2767  24
2768  30
2769  18
2770  17
2771  20
2772  28
2773  23
2774  23
2775  24
2776  20
2777  22
2778  18
2779  17
2780  18
2781  14
2782  22
2783  23
2784  24
2785  16
2786  19
2787  26
2788  22
2789  21
2790  20
2791  17
2792  20
2793  24
2794  19
2795  11
2796  18
2797  27
2798  17
2799  23
2800  19
2801  16
2802  19
2803  14
2804  21
2805  21
2806  23
2807  21
2808  18
2809  11
2810  18
2811  11
2812  10
2813  11
2814  24
2815  16
2816  16
2817  17
2818  13
2819  16
2820  19
2821  17
2822  10
2823  14
2824  15
2825  15
2826  19
2827  19
2828  22
2829  20
2830  26
2831  19
2832  17
2833  17
2834  10
2835  12
2836  19
2837  18
2838  15
2839  9
2840  19
2841  17
2842  16
2843  6
2844  14
2845  14
2846  17
2847  14
2848  13
2849  9
2850  25
2851  20
2852  22
2853  14
2854  19
2855  17
2856  12
2857  17
2858  24
2859  15
2860  11
2861  16
2862  15
2863  20
2864  13
2865  13
2866  22
2867  15
2868  11
2869  16
2870  12
2871  14
2872  16
2873  11
2874  16
2875  9
2876  10
2877  19
2878  7
2879  17
2880  14
2881  12
2882  15
2883  13
2884  11
2885  16
2886  17
2887  12
2888  12
2889  14
2890  16
2891  12
2892  20
2893  14
2894  16
2895  12
2896  16
2897  13
2898  14
2899  7
2900  14
2901  21
2902  13
2903  10
2904  19
2905  16
2906  19
2907  12
2908  14
2909  12
2910  12
2911  17
2912  15
2913  20
2914  9
2915  16
2916  10
2917  20
2918  18
2919  9
2920  12
2921  10
2922  15
2923  9
2924  13
2925  10
2926  14
2927  12
2928  14
2929  12
2930  11
2931  16
2932  9
2933  14
2934  20
2935  13
2936  14
2937  6
2938  6
2939  6
2940  9
2941  14
2942  14
2943  13
2944  8
2945  12
2946  6
2947  19
2948  12
2949  12
2950  9
2951  6
2952  6
2953  17
2954  13
2955  11
2956  12
2957  14
2958  12
2959  10
2960  9
2961  9
2962  8
2963  9
2964  10
2965  8
2966  6
2967  6
2968  9
2969  8
2970  5
2971  10
2972  10
2973  7
2974  15
2975  9
2976  15
2977  8
2978  5
2979  8
2980  9
2981  8
2982  8
2983  6
2984  9
2985  7
2986  7
2987  9
2988  12
2989  10
2990  8
2991  5
2992  7
2993  11
2994  4
2995  6
2996  3
2997  11
2998  11
2999  5
3000  6
3001  6
3002  3
3003  7
3004  5
3005  6
3006  12
3007  3
3008  5
3009  4
3010  6
3011  18
3012  3
3013  10
3014  2
3015  5
3016  3
3017  13
3018  8
3019  6
3020  8
3021  8
3022  5
3023  7
3024  7
3025  7
3026  8
3027  9
3028  2
3029  5
3030  10
3031  4
3032  5
3033  2
3034  6
3035  6
3036  11
3037  5
3038  7
3039  4
3040  10
3041  1
3042  10
3043  8
3044  7
3045  5
3046  6
3047  7
3048  7
3049  5
3050  6
3051  5
3052  8
3053  9
3054  6
3055  5
3056  8
3057  9
3058  7
3059  10
3060  6
3061  3
3062  5
3063  6
3064  6
3065  5
3066  5
3067  9
3068  3
3069  6
3070  5
3071  5
3072  8
3073  10
3074  6
3075  6
3076  4
3077  11
3078  5
3079  3
3080  6
3081  6
3082  8
3083  11
3084  4
3085  2
3086  7
3087  9
3088  8
3089  7
3090  5
3091  6
3092  11
3093  3
3094  3
3095  4
3096  8
3097  3
3098  5
3099  5
3100  7
3101  4
3102  7
3103  9
3104  4
3105  7
3106  4
3107  4
3108  8
3109  10
3110  8
3111  8
3112  6
3113  6
3114  5
3115  3
3116  5
3117  4
3118  7
3119  8
3120  5
3121  6
3122  1
3123  4
3124  6
3125  7
3126  7
3127  5
3128  7
3129  8
3130  8
3131  11
3132  9
3133  10
3134  3
3135  7
3136  5
3137  7
3138  8
3139  9
3140  7
3141  4
3142  8
3143  7
3144  6
3145  5
3146  7
3147  9
3148  8
3149  11
3150  8
3151  5
3152  9
3153  5
3154  7
3155  6
3156  4
3157  9
3158  10
3159  6
3160  2
3161  10
3162  12
3163  10
3164  6
3165  10
3166  9
3167  3
3168  8
3169  8
3170  4
3171  4
3172  8
3173  8
3174  8
3175  6
3176  4
3177  7
3178  2
3179  9
3180  3
3181  3
3182  7
3183  8
3184  6
3185  8
3186  5
3187  6
3188  5
3189  9
3190  6
3191  4
3192  5
3193  7
3194  6
3195  3
3196  3
3197  10
3198  5
3199  5
3200  9
3201  10
3202  9
3203  9
3204  6
3205  8
3206  7
3207  5
3208  3
3209  6
3210  6
3211  12
3212  3
3213  6
3214  7
3215  5
3216  5
3217  4
3218  2
3219  7
3220  7
3221  4
3222  5
3223  12
3224  7
3225  7
3226  5
3227  6
3228  8
3229  6
3230  8
3231  7
3232  5
3233  8
3234  2
3235  7
3236  6
3237  6
3238  4
3239  9
3240  9
3241  8
3242  7
3243  11
3244  2
3245  8
3246  4
3247  6
3248  7
3249  6
3250  5
3251  9
3252  9
3253  5
3254  7
3255  8
3256  7
3257  9
3258  4
3259  8
3260  7
3261  10
3262  6
3263  8
3264  3
3265  6
3266  4
3267  8
3268  9
3269  8
3270  6
3271  7
3272  7
3273  11
3274  8
3275  7
3276  6
3277  5
3278  4
3279  6
3280  9
3281  7
3282  6
3283  15
3284  6
3285  10
3286  4
3287  3
3288  6
3289  3
3290  7
3291  13
3292  6
3293  7
3294  6
3295  2
3296  7
3297  8
3298  5
3299  6
3300  6
3301  6
3302  10
3303  2
3304  8
3305  7
3306  5
3307  4
3308  7
3309  12
3310  5
3311  5
3312  5
3313  5
3314  5
3315  5
3316  10
3317  9
3318  6
3319  5
3320  10
3321  6
3322  8
3323  6
3324  2
3325  9
3326  7
3327  6
3328  4
3329  4
3330  11
3331  13
3332  11
3333  8
3334  6
3335  6
3336  11
3337  6
3338  4
3339  6
3340  11
3341  12
3342  5
3343  4
3344  2
3345  9
3346  12
3347  7
3348  4
3349  12
3350  8
3351  8
3352  9
3353  7
3354  5
3355  9
3356  7
3357  7
3358  6
3359  6
3360  6
3361  9
3362  5
3363  11
3364  7
3365  4
3366  9
3367  4
3368  8
3369  12
3370  10
3371  6
3372  11
3373  7
3374  3
3375  7
3376  6
3377  9
3378  8
3379  4
3380  6
3381  2
3382  10
3383  4
3384  8
3385  10
3386  5
3387  15
3388  5
3389  10
3390  9
3391  12
3392  10
3393  6
3394  5
3395  11
3396  9
3397  7
3398  13
3399  5
3400  7
3401  13
3402  5
3403  10
3404  2
3405  8
3406  12
3407  10
3408  16
3409  9
3410  11
3411  9
3412  11
3413  14
3414  7
3415  12
3416  9
3417  8
3418  14
3419  17
3420  18
3421  13
3422  15
3423  15
3424  12
3425  21
3426  22
3427  11
3428  27
3429  26
3430  21
3431  16
3432  27
3433  20
3434  21
3435  26
3436  24
3437  28
3438  25
3439  47
3440  33
3441  36
3442  50
3443  60
3444  63
3445  91
3446  124
3447  103
3448  138
3449  148
3450  210
3451  297
3452  328
3453  452
3454  526
3455  632
3456  758
3457  874
3458  1073
3459  1270
3460  1435
3461  1633
3462  1893
3463  2047
3464  2272
3465  2469
3466  2744
3467  2827
3468  2965
3469  3134
3470  3207
3471  3460
3472  3280
3473  3479
3474  3513
3475  3402
3476  3397
3477  3254
3478  3110
3479  2910
3480  2781
3481  2617
3482  2569
3483  2354
3484  2243
3485  1966
3486  1851
3487  1781
3488  1564
3489  1414
3490  1378
3491  1186
3492  1047
3493  918
3494  879
3495  816
3496  748
3497  669
3498  629
3499  599
3500  556
3501  547
3502  429
3503  418
3504  401
3505  372
3506  347
3507  290
3508  316
3509  281
3510  249
3511  227
3512  208
3513  199
3514  199
3515  174
3516  182
3517  157
3518  138
3519  138
3520  115
3521  118
3522  108
3523  91
3524  77
3525  68
3526  63
3527  55
3528  50
3529  47
3530  46
3531  50
3532  37
3533  41
3534  34
3535  33
3536  23
3537  31
3538  14
3539  21
3540  22
3541  12
3542  20
3543  16
3544  15
3545  9
3546  13
3547  13
3548  10
3549  20
3550  8
3551  10
3552  13
3553  9
3554  3
3555  10
3556  11
3557  3
3558  8
3559  10
3560  11
3561  7
3562  9
3563  7
3564  6
3565  8
3566  6
3567  7
3568  9
3569  9
3570  4
3571  7
3572  6
3573  8
3574  4
3575  10
3576  3
3577  7
3578  6
3579  8
3580  11
3581  9
3582  5
3583  4
3584  5
3585  6
3586  3
3587  4
3588  4
3589  8
3590  9
3591  5
3592  7
3593  3
3594  8
3595  10
3596  9
3597  7
3598  6
3599  4
3600  10
3601  4
3602  5
3603  8
3604  14
3605  6
3606  4
3607  13
3608  8
3609  6
3610  4
3611  8
3612  6
3613  8
3614  6
3615  5
3616  5
3617  8
3618  6
3619  7
3620  10
3621  6
3622  6
3623  7
3624  5
3625  6
3626  3
3627  6
3628  14
3629  7
3630  4
3631  4
3632  5
3633  7
3634  10
3635  2
3636  4
3637  3
3638  5
3639  8
3640  6
3641  5
3642  7
3643  9
3644  5
3645  10
3646  5
3647  8
3648  6
3649  5
3650  7
3651  4
3652  5
3653  8
3654  10
3655  12
3656  10
3657  5
3658  7
3659  5
3660  9
3661  3
3662  8
3663  7
3664  3
3665  4
3666  7
3667  6
3668  3
3669  6
3670  6
3671  9
3672  5
3673  10
3674  6
3675  3
3676  2
3677  8
3678  8
3679  9
3680  9
3681  6
3682  8
3683  5
3684  6
3685  5
3686  3
3687  8
3688  4
3689  8
3690  6
3691  8
3692  5
3693  4
3694  6
3695  8
3696  12
3697  9
3698  7
3699  7
3700  6
3701  7
3702  5
3703  6
3704  4
3705  4
3706  10
3707  9
3708  9
3709  5
3710  9
3711  8
3712  9
3713  6
3714  4
3715  8
3716  6
3717  6
3718  5
3719  7
3720  3
3721  3
3722  4
3723  6
3724  7
3725  4
3726  9
3727  7
3728  8
3729  5
3730  4
3731  4
3732  6
3733  7
3734  6
3735  6
3736  14
3737  4
3738  8
3739  5
3740  8
3741  8
3742  4
3743  6
3744  10
3745  10
3746  7
3747  13
3748  4
3749  5
3750  6
3751  4
3752  6
3753  11
3754  8
3755  1
3756  7
3757  3
3758  2
3759  5
3760  1
3761  9
3762  6
3763  8
3764  10
3765  5
3766  5
3767  5
3768  9
3769  5
3770  8
3771  11
3772  7
3773  7
3774  4
3775  6
3776  8
3777  13
3778  8
3779  4
3780  8
3781  6
3782  6
3783  6
3784  9
3785  6
3786  4
3787  8
3788  5
3789  9
3790  7
3791  4
3792  4
3793  5
3794  6
3795  8
3796  11
3797  9
3798  6
3799  6
3800  4
3801  9
3802  8
3803  8
3804  8
3805  11
3806  7
3807  3
3808  9
3809  4
3810  9
3811  6
3812  3
3813  7
3814  6
3815  4
3816  3
3817  3
3818  6
3819  4
3820  0
3821  8
3822  8
3823  5
3824  6
3825  5
3826  7
3827  5
3828  5
3829  10
3830  8
3831  3
3832  5
3833  11
3834  6
3835  7
3836  6
3837  5
3838  3
3839  6
3840  0
3841  0
3842  0
3843  0
3844  0
3845  0
3846  0
3847  0
3848  0
3849  0
3850  0
3851  0
3852  0
3853  0
3854  0
3855  0
3856  0
3857  0
3858  0
3859  0
3860  0
3861  0
3862  0
3863  0
3864  0
3865  0
3866  0
3867  0
3868  0
3869  0
3870  0
3871  0
3872  0
3873  0
3874  0
3875  0
3876  0
3877  0
3878  0
3879  0
3880  0
3881  0
3882  0
3883  0
3884  0
3885  0
3886  0
3887  0
3888  0
3889  0
3890  0
3891  0
3892  0
3893  0
3894  0
3895  0
3896  0
3897  0
3898  0
3899  0
3900  0
3901  0
3902  0
3903  0
3904  0
3905  0
3906  0
3907  0
3908  0
3909  0
3910  0
3911  0
3912  0
3913  0
3914  0
3915  0
3916  0
3917  0
3918  0
3919  0
3920  0
3921  0
3922  0
3923  0
3924  0
3925  0
3926  0
3927  0
3928  0
3929  0
3930  0
3931  0
3932  0
3933  0
3934  0
3935  0
3936  0
3937  0
3938  0
3939  0
3940  0
3941  0
3942  0
3943  0
3944  0
3945  0
3946  0
3947  0
3948  0
3949  0
3950  0
3951  0
3952  0
3953  0
3954  0
3955  0
3956  0
3957  0
3958  0
3959  0
3960  0
3961  0
3962  0
3963  0
3964  0
3965  0
3966  0
3967  0
3968  0
3969  0
3970  0
3971  0
3972  0
3973  0
3974  0
3975  0
3976  0
3977  0
3978  0
3979  0
3980  0
3981  0
3982  0
3983  0
3984  0
3985  0
3986  0
3987  0
3988  0
3989  0
3990  0
3991  0
3992  0
3993  0
3994  0
3995  0
3996  0
3997  0
3998  0
3999  0
4000  0
4001  0
4002  0
4003  0
4004  0
4005  0
4006  0
4007  0
4008  0
4009  0
4010  0
4011  0
4012  0
4013  0
4014  0
4015  0
4016  0
4017  0
4018  0
4019  0
4020  0
4021  0
4022  0
4023  0
4024  0
4025  0
4026  0
4027  0
4028  0
4029  0
4030  0
4031  0
4032  0
4033  0
4034  0
4035  0
4036  0
4037  0
4038  0
4039  0
4040  0
4041  0
4042  0
4043  0
4044  0
4045  0
4046  0
4047  0
4048  0
4049  0
4050  0
4051  0
4052  0
4053  0
4054  0
4055  0
4056  0
4057  0
4058  0
4059  0
4060  0
4061  0
4062  0
4063  0
4064  0
4065  0
4066  0
4067  0
4068  0
4069  0
4070  0
4071  0
4072  0
4073  0
4074  0
4075  0
4076  0
4077  0
4078  0
4079  0
4080  0
4081  0
4082  0
4083  0
4084  0
4085  0
4086  0
4087  0
4088  0
4089  0
4090  0
4091  0
4092  0
4093  0
4094  0
4095  0
