0  0
1  0
2  0
3  0
4  0
5  0
6  0
7  0
8  0
9  0
10  0
11  0
12  0
13  0
14  0
15  0
16  0
17  0
18  0
19  0
20  0
21  0
22  0
23  0
24  0
25  0
26  0
27  0
28  0
29  0
30  0
31  0
32  0
33  0
34  0
35  0
36  0
37  0
38  0
39  0
40  0
41  0
42  0
43  0
44  0
45  0
46  0
47  0
48  0
49  0
50  0
51  0
52  0
53  0
54  0
55  0
56  0
57  0
58  0
59  0
60  0
61  0
62  0
63  0
64  0
65  0
66  0
67  0
68  0
69  0
70  0
71  0
72  0
73  0
74  0
75  0
76  0
77  0
78  0
79  0
80  0
81  0
82  0
83  0
84  0
85  0
86  0
87  0
88  0
89  0
90  0
91  0
92  0
93  0
94  0
95  0
96  0
97  0
98  0
99  0
100  0
101  0
102  0
103  0
104  0
105  0
106  0
107  0
108  0
109  0
110  0
111  0
112  0
113  0
114  0
115  0
116  0
117  0
118  0
119  0
120  0
121  0
122  0
123  0
124  0
125  0
126  0
127  0
128  0
129  0
130  0
131  0
132  0
133  0
134  0
135  0
136  0
137  0
138  0
139  0
140  0
141  0
142  0
143  0
144  0
145  0
146  0
147  0
148  0
149  0
150  0
151  0
152  0
153  0
154  0
155  0
156  0
157  0
158  0
159  0
160  0
161  0
162  0
163  0
164  0
165  0
166  0
167  0
168  0
169  0
170  0
171  0
172  0
173  0
174  0
175  0
176  0
177  0
178  0
179  0
180  0
181  0
182  0
183  0
184  0
185  0
186  0
187  0
188  0
189  0
190  0
191  0
192  0
193  0
194  0
195  0
196  0
197  0
198  0
199  0
200  0
201  0
202  0
203  0
204  0
205  0
206  0
207  0
208  0
209  0
210  0
211  0
212  0
213  0
214  0
215  0
216  0
217  0
218  0
219  0
220  0
221  0
222  0
223  0
224  0
225  0
226  0
227  0
228  0
229  0
230  0
231  0
232  0
233  0
234  0
235  0
236  0
237  0
238  0
239  0
240  0
241  0
242  0
243  0
244  0
245  0
246  0
247  0
248  0
249  0
250  0
251  0
252  0
253  0
254  0
255  0
256  0
257  0
258  0
259  0
260  0
261  0
262  0
263  0
264  0
265  0
266  0
267  0
268  0
269  0
270  0
271  0
272  0
273  0
274  0
275  0
276  0
277  0
278  0
279  0
280  0
281  0
282  0
283  0
284  0
285  0
286  0
287  0
288  0
289  0
290  0
291  0
292  0
293  0
294  0
295  0
296  0
297  0
298  0
299  0
300  0
301  0
302  0
303  0
304  0
305  0
306  0
307  0
308  0
309  0
310  0
311  0
312  0
313  0
314  0
315  0
316  0
317  0
318  0
319  0
320  0
321  0
322  0
323  0
324  0
325  0
326  0
327  0
328  0
329  0
330  0
331  0
332  0
333  0
334  0
335  0
336  0
337  0
338  0
339  0
340  0
341  0
342  0
343  0
344  0
345  0
346  0
347  0
348  0
349  0
350  0
351  0
352  0
353  0
354  0
355  0
356  0
357  0
358  0
359  0
360  0
361  0
362  0
363  0
364  0
365  0
366  0
367  0
368  0
369  0
370  0
371  0
372  0
373  0
374  0
375  0
376  0
377  0
378  0
379  0
380  0
381  0
382  0
383  0
384  0
385  0
386  0
387  0
388  0
389  0
390  0
391  0
392  0
393  0
394  0
395  0
396  0
397  0
398  0
399  0
400  0
401  0
402  0
403  0
404  0
405  0
406  0
407  0
408  0
409  0
410  0
411  0
412  0
413  0
414  0
415  0
416  0
417  0
418  0
419  0
420  0
421  0
422  0
423  0
424  0
425  0
426  0
427  0
428  0
429  0
430  0
431  0
432  0
433  0
434  0
435  0
436  0
437  0
438  0
439  0
440  0
441  0
442  0
443  0
444  0
445  0
446  0
447  0
448  0
449  0
450  0
451  0
452  0
453  0
454  0
455  0
456  0
457  0
458  0
459  0
460  0
461  0
462  0
463  0
464  0
465  0
466  0
467  0
468  0
469  0
470  0
471  0
472  0
473  0
474  0
475  0
476  0
477  0
478  0
479  0
480  0
481  0
482  0
483  0
484  0
485  0
486  0
487  0
488  0
489  0
490  0
491  0
492  0
493  0
494  0
495  0
496  0
497  0
498  0
499  0
500  0
501  0
502  0
503  0
504  0
505  0
506  0
507  0
508  0
509  0
510  0
511  0
512  0
513  0
514  0
515  0
516  0
517  0
518  0
519  0
520  0
521  0
522  0
523  0
524  0
525  0
526  0
527  0
528  0
529  0
530  0
531  0
532  0
533  0
534  0
535  0
536  0
537  0
538  0
539  0
540  0
541  0
542  0
543  0
544  0
545  0
546  0
547  0
548  0
549  0
550  0
551  0
552  0
553  0
554  0
555  0
556  0
557  0
558  0
559  0
560  0
561  0
562  0
563  0
564  0
565  0
566  0
567  0
568  0
569  0
570  0
571  0
572  0
573  0
574  0
575  0
576  0
577  0
578  0
579  0
580  0
581  0
582  0
583  0
584  0
585  0
586  0
587  0
588  0
589  0
590  0
591  0
592  0
593  0
594  0
595  0
596  0
597  0
598  0
599  0
600  0
601  0
602  0
603  0
604  0
605  0
606  0
607  0
608  0
609  0
610  0
611  0
612  0
613  0
614  0
615  0
616  0
617  0
618  0
619  0
620  0
621  0
622  0
623  0
624  0
625  0
626  0
627  0
628  0
629  0
630  0
631  0
632  0
633  0
634  0
635  0
636  0
637  0
638  0
639  0
640  0
641  0
642  0
643  0
644  0
645  0
646  0
647  0
648  0
649  0
650  0
651  0
652  0
653  0
654  0
655  0
656  0
657  0
658  0
659  0
660  0
661  0
662  0
663  0
664  0
665  0
666  0
667  0
668  0
669  0
670  0
671  0
672  0
673  0
674  0
675  0
676  0
677  0
678  0
679  0
680  0
681  0
682  0
683  0
684  0
685  0
686  0
687  0
688  0
689  0
690  0
691  0
692  0
693  0
694  0
695  0
696  0
697  0
698  0
699  0
700  0
701  0
702  0
703  0
704  0
705  0
706  0
707  0
708  0
709  0
710  0
711  0
712  0
713  0
714  0
715  0
716  0
717  0
718  0
719  0
720  0
721  0
722  0
723  0
724  0
725  0
726  0
727  0
728  0
729  0
730  0
731  0
732  0
733  0
734  0
735  0
736  0
737  0
738  0
739  0
740  0
741  0
742  0
743  0
744  0
745  0
746  0
747  0
748  0
749  0
750  0
751  0
752  0
753  0
754  0
755  0
756  0
757  0
758  0
759  0
760  0
761  0
762  0
763  0
764  0
765  0
766  0
767  0
768  0
769  0
770  0
771  0
772  0
773  0
774  0
775  0
776  0
777  0
778  0
779  0
780  0
781  0
782  0
783  0
784  0
785  0
786  0
787  0
788  0
789  0
790  0
791  0
792  0
793  0
794  0
795  0
796  0
797  0
798  0
799  0
800  0
801  0
802  0
803  0
804  0
805  0
806  0
807  0
808  0
809  0
810  0
811  0
812  0
813  0
814  0
815  0
816  0
817  0
818  0
819  0
820  0
821  0
822  0
823  0
824  0
825  0
826  0
827  0
828  0
829  0
830  0
831  0
832  0
833  0
834  0
835  0
836  0
837  0
838  0
839  0
840  0
841  0
842  0
843  0
844  0
845  0
846  0
847  0
848  0
849  0
850  0
851  0
852  0
853  0
854  0
855  0
856  0
857  0
858  0
859  0
860  0
861  0
862  0
863  0
864  0
865  0
866  0
867  0
868  0
869  0
870  0
871  0
872  0
873  0
874  0
875  0
876  0
877  0
878  0
879  0
880  0
881  0
882  0
883  0
884  0
885  0
886  0
887  0
888  0
889  0
890  0
891  0
892  0
893  0
894  0
895  0
896  0
897  0
898  0
899  0
900  0
901  0
902  0
903  0
904  0
905  0
906  0
907  0
908  0
909  0
910  0
911  0
912  0
913  0
914  0
915  0
916  0
917  0
918  0
919  0
920  0
921  0
922  0
923  0
924  0
925  0
926  0
927  0
928  0
929  0
930  0
931  0
932  0
933  0
934  0
935  0
936  0
937  0
938  0
939  0
940  0
941  0
942  0
943  0
944  0
945  0
946  0
947  0
948  0
949  0
950  0
951  0
952  0
953  0
954  0
955  0
956  0
957  0
958  0
959  0
960  0
961  0
962  0
963  0
964  0
965  0
966  0
967  0
968  0
969  0
970  0
971  0
972  0
973  0
974  0
975  0
976  0
977  0
978  0
979  0
980  0
981  0
982  0
983  0
984  0
985  0
986  0
987  0
988  0
989  0
990  0
991  0
992  0
993  0
994  0
995  0
996  0
997  0
998  0
999  0
1000  0
1001  0
1002  0
1003  0
1004  0
1005  0
1006  0
1007  0
1008  0
1009  0
1010  0
1011  0
1012  0
1013  0
1014  0
1015  0
1016  0
1017  0
1018  0
1019  0
1020  0
1021  0
1022  0
1023  0
1024  0
1025  0
1026  0
1027  0
1028  0
1029  0
1030  0
1031  0
1032  0
1033  0
1034  0
1035  0
1036  0
1037  0
1038  0
1039  0
1040  0
1041  0
1042  0
1043  0
1044  0
1045  0
1046  0
1047  0
1048  0
1049  0
1050  0
1051  0
1052  0
1053  0
1054  0
1055  0
1056  0
1057  0
1058  0
1059  0
1060  0
1061  0
1062  0
1063  0
1064  0
1065  0
1066  0
1067  0
1068  0
1069  0
1070  0
1071  0
1072  0
1073  0
1074  0
1075  0
1076  0
1077  0
1078  0
1079  0
1080  0
1081  0
1082  0
1083  0
1084  0
1085  0
1086  0
1087  0
1088  0
1089  0
1090  0
1091  0
1092  0
1093  0
1094  0
1095  0
1096  0
1097  0
1098  0
1099  0
1100  0
1101  0
1102  0
1103  0
1104  0
1105  0
1106  0
1107  0
1108  0
1109  0
1110  0
1111  0
1112  0
1113  0
1114  0
1115  0
1116  0
1117  0
1118  0
1119  0
1120  0
1121  0
1122  0
1123  0
1124  0
1125  0
1126  0
1127  0
1128  0
1129  0
1130  0
1131  0
1132  0
1133  0
1134  0
1135  0
1136  0
1137  0
1138  0
1139  0
1140  0
1141  0
1142  0
1143  0
1144  0
1145  0
1146  0
1147  0
1148  0
1149  0
1150  0
1151  0
1152  0
1153  0
1154  0
1155  0
1156  0
1157  0
1158  0
1159  0
1160  0
1161  0
1162  0
1163  0
1164  0
1165  0
1166  0
1167  0
1168  0
1169  0
1170  0
1171  0
1172  0
1173  0
1174  0
1175  0
1176  0
1177  0
1178  0
1179  0
1180  0
1181  0
1182  0
1183  0
1184  0
1185  0
1186  0
1187  0
1188  0
1189  0
1190  0
1191  0
1192  0
1193  0
1194  0
1195  0
1196  0
1197  0
1198  0
1199  0
1200  0
1201  0
1202  0
1203  0
1204  0
1205  0
1206  0
1207  0
1208  0
1209  0
1210  0
1211  0
1212  0
1213  0
1214  0
1215  0
1216  0
1217  0
1218  0
1219  0
1220  0
1221  0
1222  0
1223  0
1224  0
1225  0
1226  0
1227  0
1228  0
1229  0
1230  0
1231  0
1232  0
1233  0
1234  0
1235  0
1236  0
1237  0
1238  0
1239  0
1240  0
1241  0
1242  0
1243  0
1244  0
1245  0
1246  0
1247  0
1248  0
1249  0
1250  0
1251  0
1252  0
1253  0
1254  0
1255  0
1256  0
1257  0
1258  0
1259  0
1260  0
1261  0
1262  0
1263  0
1264  0
1265  0
1266  0
1267  0
1268  0
1269  0
1270  0
1271  0
1272  0
1273  0
1274  0
1275  0
1276  0
1277  0
1278  0
1279  0
1280  0
1281  0
1282  0
1283  0
1284  0
1285  0
1286  0
1287  0
1288  0
1289  0
1290  0
1291  0
1292  0
1293  0
1294  0
1295  0
1296  0
1297  0
1298  0
1299  0
1300  0
1301  0
1302  0
1303  0
1304  0
1305  0
1306  0
1307  0
1308  0
1309  0
1310  0
1311  0
1312  0
1313  0
1314  0
1315  0
1316  0
1317  0
1318  0
1319  0
1320  0
1321  0
1322  0
1323  0
1324  0
1325  0
1326  0
1327  0
1328  0
1329  0
1330  0
1331  0
1332  0
1333  0
1334  0
1335  0
1336  0
1337  0
1338  0
1339  0
1340  0
1341  0
1342  0
1343  0
1344  0
1345  0
1346  0
1347  0
1348  0
1349  0
1350  0
1351  0
1352  0
1353  0
1354  0
1355  0
1356  0
1357  0
1358  0
1359  0
1360  0
1361  0
1362  0
1363  0
1364  0
1365  0
1366  0
1367  0
1368  0
1369  0
1370  0
1371  0
1372  0
1373  0
1374  0
1375  0
1376  0
1377  0
1378  0
1379  0
1380  0
1381  0
1382  0
1383  0
1384  0
1385  0
1386  0
1387  0
1388  0
1389  0
1390  0
1391  0
1392  0
1393  0
1394  0
1395  0
1396  0
1397  0
1398  0
1399  0
1400  0
1401  0
1402  0
1403  0
1404  0
1405  0
1406  0
1407  0
1408  0
1409  0
1410  0
1411  0
1412  0
1413  0
1414  0
1415  0
1416  0
1417  0
1418  0
1419  0
1420  0
1421  0
1422  0
1423  0
1424  0
1425  0
1426  0
1427  0
1428  0
1429  0
1430  0
1431  0
1432  0
1433  0
1434  0
1435  0
1436  0
1437  0
1438  0
1439  0
1440  0
1441  0
1442  0
1443  0
1444  0
1445  0
1446  0
1447  0
1448  0
1449  0
1450  0
1451  0
1452  0
1453  0
1454  0
1455  0
1456  0
1457  0
1458  0
1459  0
1460  0
1461  0
1462  0
1463  0
1464  0
1465  0
1466  0
1467  0
1468  0
1469  0
1470  0
1471  0
1472  0
1473  0
1474  0
1475  0
1476  0
1477  0
1478  0
1479  0
1480  0
1481  0
1482  0
1483  0
1484  0
1485  0
1486  0
1487  0
1488  0
1489  0
1490  0
1491  0
1492  0
1493  0
1494  0
1495  0
1496  0
1497  0
1498  0
1499  0
1500  0
1501  0
1502  0
1503  0
1504  0
1505  0
1506  0
1507  0
1508  0
1509  0
1510  0
1511  0
1512  0
1513  0
1514  0
1515  0
1516  0
1517  0
1518  0
1519  0
1520  0
1521  0
1522  0
1523  0
1524  0
1525  0
1526  0
1527  0
1528  0
1529  0
1530  0
1531  0
1532  0
1533  0
1534  0
1535  0
1536  0
1537  0
1538  0
1539  0
1540  0
1541  0
1542  0
1543  0
1544  0
1545  0
1546  0
1547  0
1548  0
1549  0
1550  0
1551  0
1552  0
1553  0
1554  0
1555  0
1556  0
1557  0
1558  0
1559  0
1560  0
1561  0
1562  0
1563  0
1564  0
1565  0
1566  0
1567  0
1568  0
1569  0
1570  0
1571  0
1572  0
1573  0
1574  0
1575  0
1576  0
1577  0
1578  0
1579  0
1580  0
1581  0
1582  0
1583  0
1584  0
1585  0
1586  0
1587  0
1588  0
1589  0
1590  0
1591  0
1592  0
1593  0
1594  0
1595  0
1596  0
1597  0
1598  3
1599  10
1600  29
1601  91
1602  287
1603  632
1604  1024
1605  1397
1606  1502
1607  1507
1608  1454
1609  1420
1610  1284
1611  1269
1612  1200
1613  1130
1614  1125
1615  1024
1616  969
1617  1006
1618  880
1619  854
1620  863
1621  718
1622  719
1623  758
1624  688
1625  654
1626  643
1627  568
1628  541
1629  527
1630  537
1631  490
1632  484
1633  480
1634  411
1635  425
1636  394
1637  365
1638  352
1639  335
1640  332
1641  363
1642  314
1643  277
1644  283
1645  281
1646  262
1647  253
1648  220
1649  225
1650  245
1651  219
1652  207
1653  186
1654  205
1655  182
1656  157
1657  150
1658  154
1659  145
1660  151
1661  148
1662  142
1663  141
1664  142
1665  123
1666  100
1667  103
1668  122
1669  108
1670  88
1671  98
1672  94
1673  81
1674  94
1675  87
1676  98
1677  75
1678  75
1679  67
1680  61
1681  88
1682  68
1683  69
1684  62
1685  61
1686  59
1687  53
1688  48
1689  48
1690  54
1691  61
1692  53
1693  51
1694  43
1695  49
1696  43
1697  39
1698  53
1699  51
1700  43
1701  42
1702  42
1703  38
1704  31
1705  29
1706  35
1707  37
1708  31
1709  40
1710  32
1711  31
1712  33
1713  33
1714  36
1715  21
1716  29
1717  30
1718  29
1719  23
1720  23
1721  30
1722  22
1723  34
1724  26
1725  23
1726  20
1727  25
1728  22
1729  22
1730  20
1731  31
1732  21
1733  16
1734  26
1735  17
1736  15
1737  22
1738  13
1739  20
1740  22
1741  15
1742  21
1743  15
1744  19
1745  22
1746  21
1747  23
1748  18
1749  16
1750  18
1751  12
1752  18
1753  17
1754  22
1755  19
1756  12
1757  26
1758  22
1759  15
1760  12
1761  26
1762  12
1763  20
1764  23
1765  22
1766  23
1767  23
1768  19
1769  15
1770  26
1771  23
1772  13
1773  22
1774  18
1775  14
1776  28
1777  25
1778  25
1779  21
1780  26
1781  22
1782  19
1783  22
1784  24
1785  21
1786  27
1787  32
1788  26
1789  25
1790  29
1791  30
1792  28
1793  31
1794  41
1795  22
1796  40
1797  27
1798  33
1799  24
1800  39
1801  41
1802  25
1803  25
1804  52
1805  34
1806  32
1807  39
1808  34
1809  32
1810  37
1811  39
1812  37
1813  42
1814  43
1815  38
1816  50
1817  39
1818  43
1819  39
1820  32
1821  61
1822  56
1823  37
1824  41
1825  53
1826  33
1827  44
1828  61
1829  52
1830  32
1831  56
1832  52
1833  69
1834  57
1835  50
1836  43
1837  69
1838  51
1839  55
1840  66
1841  52
1842  53
1843  62
1844  79
1845  56
1846  70
1847  67
1848  55
1849  83
1850  63
1851  75
1852  76
1853  73
1854  86
1855  64
1856  72
1857  63
1858  84
1859  90
1860  75
1861  83
1862  93
1863  86
1864  82
1865  96
1866  97
1867  79
1868  74
1869  85
1870  116
1871  98
1872  105
1873  93
1874  94
1875  85
1876  106
1877  106
1878  106
1879  121
1880  121
1881  94
1882  101
1883  105
1884  132
1885  111
1886  128
1887  109
1888  142
1889  112
1890  119
1891  116
1892  112
1893  118
1894  108
1895  120
1896  126
1897  131
1898  120
1899  132
1900  151
1901  150
1902  114
1903  128
1904  134
1905  138
1906  128
1907  145
1908  147
1909  146
1910  141
1911  139
1912  147
1913  143
1914  126
1915  179
1916  141
1917  157
1918  144
1919  138
1920  168
1921  152
1922  143
1923  178
1924  162
1925  147
1926  174
1927  146
1928  165
1929  183
1930  155
1931  168
1932  181
1933  152
1934  170
1935  169
1936  169
1937  151
1938  139
1939  163
1940  160
1941  176
1942  163
1943  160
1944  165
1945  145
1946  174
1947  200
1948  177
1949  187
1950  171
1951  171
1952  196
1953  186
1954  191
1955  177
1956  181
1957  173
1958  171
1959  186
1960  209
1961  180
1962  178
1963  180
1964  202
1965  157
1966  195
1967  197
1968  174
1969  186
1970  181
1971  169
1972  207
1973  190
1974  183
1975  173
1976  192
1977  200
1978  182
1979  180
1980  199
1981  184
1982  210
1983  184
1984  205
1985  217
1986  201
1987  179
1988  188
1989  195
1990  224
1991  195
1992  240
1993  231
1994  196
1995  188
1996  188
1997  220
1998  206
1999  222
2000  166
2001  196
2002  184
2003  208
2004  176
2005  182
2006  182
2007  203
2008  195
2009  205
2010  192
2011  211
2012  198
2013  197
2014  196
2015  187
2016  189
2017  180
2018  194
2019  211
2020  182
2021  188
2022  204
2023  180
2024  174
2025  228
2026  211
2027  179
2028  208
2029  183
2030  198
2031  176
2032  203
2033  201
2034  209
2035  184
2036  180
2037  175
2038  160
2039  200
2040  196
2041  199
2042  186
2043  185
2044  196
2045  181
2046  192
2047  203
2048  174
2049  176
2050  208
2051  178
2052  177
2053  176
2054  174
2055  187
2056  177
2057  188
2058  183
2059  198
2060  162
2061  162
2062  203
2063  169
2064  163
2065  163
2066  167
2067  170
2068  169
2069  201
2070  186
2071  168
2072  162
2073  188
2074  162
2075  159
2076  149
2077  161
2078  154
2079  171
2080  141
2081  154
2082  149
2083  159
2084  175
2085  142
2086  160
2087  165
2088  182
2089  138
2090  179
2091  154
2092  144
2093  164
2094  180
2095  119
2096  136
2097  154
2098  162
2099  154
2100  153
2101  160
2102  139
2103  154
2104  151
2105  161
2106  141
2107  140
2108  142
2109  138
2110  133
2111  167
2112  148
2113  141
2114  129
2115  167
2116  161
2117  156
2118  135
2119  143
2120  116
2121  134
2122  113
2123  127
2124  140
2125  123
2126  146
2127  122
2128  147
2129  128
2130  137
2131  114
2132  117
2133  133
2134  136
2135  129
2136  115
2137  126
2138  118
2139  108
2140  121
2141  125
2142  137
2143  124
2144  110
2145  119
2146  99
2147  107
2148  117
2149  129
2150  121
2151  123
2152  110
2153  128
2154  126
2155  117
2156  114
2157  118
2158  119
2159  109
2160  103
2161  127
2162  107
2163  126
2164  119
2165  133
2166  125
2167  110
2168  121
2169  95
2170  92
2171  109
2172  116
2173  106
2174  116
2175  98
2176  91
2177  109
2178  104
2179  99
2180  102
2181  99
2182  104
2183  93
2184  91
2185  95
2186  102
2187  87
2188  87
2189  112
2190  90
2191  90
2192  99
2193  99
2194  104
2195  65
2196  117
2197  110
2198  94
2199  100
2200  86
2201  84
2202  107
2203  92
2204  74
2205  107
2206  92
2207  78
2208  82
2209  78
2210  77
2211  97
2212  84
2213  93
2214  82
2215  69
2216  90
2217  73
2218  68
2219  73
2220  89
2221  80
2222  91
2223  81
2224  85
2225  90
2226  67
2227  73
2228  59
2229  72
2230  74
2231  73
2232  72
2233  58
2234  75
2235  77
2236  74
2237  61
2238  69
2239  84
2240  76
2241  67
2242  77
2243  81
2244  76
2245  77
2246  76
2247  57
2248  51
2249  69
2250  58
2251  53
2252  57
2253  77
2254  60
2255  50
2256  52
2257  69
2258  72
2259  61
2260  56
2261  76
2262  52
2263  56
2264  70
2265  57
2266  65
2267  45
2268  57
2269  45
2270  54
2271  46
2272  57
2273  49
2274  65
2275  51
2276  49
2277  58
2278  50
2279  63
2280  53
2281  47
2282  61
2283  46
2284  59
2285  52
2286  45
2287  60
2288  53
2289  61
2290  53
2291  56
2292  50
2293  45
2294  47
2295  58
2296  54
2297  47
2298  42
2299  47
2300  48
2301  50
2302  52
2303  46
2304  52
2305  46
2306  40
2307  42
2308  47
2309  48
2310  51
2311  36
2312  34
2313  50
2314  28
2315  50
2316  45
2317  36
2318  45
2319  40
2320  49
2321  44
2322  23
2323  43
2324  42
2325  48
2326  42
2327  41
2328  40
2329  39
2330  35
2331  31
2332  37
2333  36
2334  32
2335  46
2336  41
2337  43
2338  36
2339  37
2340  29
2341  30
2342  39
2343  27
2344  29
2345  33
2346  34
2347  44
2348  28
2349  34
2350  39
2351  31
2352  26
2353  37
2354  43
2355  28
2356  24
2357  31
2358  36
2359  35
2360  36
2361  31
2362  41
2363  38
2364  28
2365  24
2366  28
2367  25
2368  25
2369  28
2370  29
2371  31
2372  31
2373  29
2374  31
2375  29
2376  23
2377  24
2378  19
2379  40
2380  32
2381  19
2382  21
2383  36
2384  33
2385  33
2386  25
2387  22
2388  20
2389  31
2390  28
2391  22
2392  27
2393  28
2394  24
2395  20
2396  21
2397  39
2398  26
2399  28
2400  25
2401  27
2402  24
2403  27
2404  27
2405  17
2406  27
2407  15
2408  35
2409  26
2410  18
2411  26
2412  24
2413  24
2414  28
2415  25
2416  23
2417  24
2418  24
2419  31
2420  18
2421  25
2422  19
2423  17
2424  21
2425  33
2426  21
2427  17
2428  16
2429  23
2430  17
2431  15
2432  18
2433  15
2434  18
2435  18
2436  18
2437  19
2438  23
2439  14
2440  15
2441  19
2442  20
2443  19
2444  17
2445  19
2446  20
2447  18
2448  21
2449  14
2450  22
2451  17
2452  20
2453  20
2454  13
2455  24
2456  16
2457  14
2458  10
2459  19
2460  8
2461  16
2462  12
2463  23
2464  13
2465  20
2466  11
2467  13
2468  27
2469  10
2470  17
2471  13
2472  22
2473  14
2474  14
2475  12
2476  11
2477  20
2478  17
2479  19
2480  15
2481  16
2482  14
2483  15
2484  12
2485  14
2486  11
2487  13
2488  16
2489  11
2490  21
2491  11
2492  22
2493  24
2494  14
2495  10
2496  11
2497  19
2498  17
2499  14
2500  12
2501  16
2502  13
2503  13
2504  7
2505  16
2506  16
2507  14
2508  12
2509  12
2510  14
2511  11
2512  11
2513  15
2514  7
2515  10
2516  7
2517  13
2518  6
2519  20
2520  15
2521  11
2522  11
2523  8
2524  15
2525  10
2526  13
2527  12
2528  11
2529  8
2530  7
2531  7
2532  5
2533  9
2534  14
2535  10
2536  7
2537  12
2538  7
2539  12
2540  7
2541  10
2542  13
2543  9
2544  7
2545  14
2546  10
2547  5
2548  14
2549  13
2550  11
2551  11
2552  9
2553  12
2554  7
2555  13
2556  5
2557  7
2558  5
2559  13
2560  8
2561  5
2562  13
2563  10
2564  9
2565  5
2566  7
2567  12
2568  9
2569  8
2570  9
2571  8
2572  6
2573  11
2574  11
2575  9
2576  5
2577  2
2578  7
2579  8
2580  9
2581  6
2582  5
2583  6
2584  9
2585  7
2586  9
2587  7
2588  5
2589  9
2590  6
2591  5
2592  7
2593  8
2594  8
2595  5
2596  7
2597  3
2598  6
2599  5
2600  10
2601  5
2602  10
2603  4
2604  12
2605  7
2606  5
2607  5
2608  7
2609  4
2610  6
2611  7
2612  5
2613  6
2614  5
2615  7
2616  8
2617  3
2618  4
2619  5
2620  10
2621  5
2622  3
2623  3
2624  7
2625  4
2626  8
2627  8
2628  2
2629  6
2630  5
2631  2
2632  7
2633  12
2634  4
2635  6
2636  5
2637  2
2638  6
2639  6
2640  5
2641  1
2642  4
2643  4
2644  4
2645  3
2646  6
2647  4
2648  9
2649  3
2650  5
2651  5
2652  5
2653  10
2654  4
2655  3
2656  2
2657  7
2658  5
2659  7
2660  8
2661  5
2662  2
2663  4
2664  7
2665  2
2666  3
2667  5
2668  4
2669  3
2670  5
2671  8
2672  7
2673  7
2674  4
2675  0
2676  10
2677  2
2678  7
2679  3
2680  8
2681  3
2682  3
2683  4
2684  5
2685  3
2686  7
2687  5
2688  3
2689  3
2690  4
2691  10
2692  1
2693  4
2694  3
2695  3
2696  3
2697  3
2698  6
2699  2
2700  3
2701  3
2702  3
2703  3
2704  4
2705  2
2706  3
2707  1
2708  4
2709  6
2710  2
2711  3
2712  5
2713  9
2714  4
2715  3
2716  1
2717  6
2718  7
2719  6
2720  4
2721  9
2722  3
2723  4
2724  5
2725  5
2726  5
2727  5
2728  5
2729  7
2730  1
2731  4
2732  2
2733  3
2734  2
2735  3
2736  4
2737  1
2738  5
2739  7
2740  4
2741  5
2742  1
2743  6
2744  4
2745  2
2746  3
2747  4
2748  2
2749  2
2750  4
2751  5
2752  4
2753  6
2754  5
2755  1
2756  4
2757  8
2758  2
2759  5
2760  3
2761  6
2762  5
2763  1
2764  1
2765  4
2766  3
2767  3
2768  6
2769  2
2770  3
2771  3
2772  2
2773  1
2774  1
2775  5
2776  2
2777  4
2778  2
2779  2
2780  6
2781  0
2782  3
2783  5
2784  2
2785  4
2786  4
2787  3
2788  2
2789  4
2790  3
2791  0
2792  2
2793  2
2794  3
2795  7
2796  5
2797  0
2798  0
2799  3
2800  0
2801  1
2802  4
2803  3
2804  1
2805  1
2806  2
2807  1
2808  1
2809  3
2810  2
2811  6
2812  3
2813  3
2814  3
2815  3
2816  4
2817  2
2818  2
2819  0
2820  1
2821  7
2822  3
2823  0
2824  0
2825  3
2826  3
2827  3
2828  4
2829  4
2830  2
2831  4
2832  4
2833  1
2834  1
2835  2
2836  0
2837  1
2838  3
2839  1
2840  3
2841  5
2842  1
2843  0
2844  1
2845  3
2846  3
2847  4
2848  4
2849  2
2850  4
2851  5
2852  2
2853  2
2854  2
2855  1
2856  2
2857  4
2858  1
2859  2
2860  0
2861  3
2862  2
2863  3
2864  1
2865  4
2866  4
2867  1
2868  2
2869  0
2870  2
2871  4
2872  1
2873  0
2874  3
2875  2
2876  5
2877  0
2878  2
2879  3
2880  2
2881  3
2882  3
2883  2
2884  2
2885  3
2886  2
2887  4
2888  1
2889  0
2890  1
2891  3
2892  2
2893  2
2894  2
2895  0
2896  3
2897  0
2898  3
2899  1
2900  2
2901  0
2902  1
2903  1
2904  3
2905  3
2906  1
2907  1
2908  0
2909  4
2910  3
2911  2
2912  1
2913  2
2914  0
2915  1
2916  3
2917  1
2918  1
2919  2
2920  0
2921  0
2922  1
2923  2
2924  1
2925  3
2926  1
2927  0
2928  0
2929  2
2930  0
2931  0
2932  2
2933  0
2934  1
2935  3
2936  2
2937  2
2938  1
2939  1
2940  1
2941  1
2942  5
2943  0
2944  2
2945  3
2946  0
2947  1
2948  2
2949  0
2950  0
2951  0
2952  1
2953  3
2954  0
2955  1
2956  2
2957  1
2958  3
2959  2
2960  0
2961  1
2962  0
2963  0
2964  2
2965  1
2966  3
2967  2
2968  1
2969  3
2970  1
2971  2
2972  0
2973  1
2974  2
2975  1
2976  4
2977  2
2978  0
2979  0
2980  2
2981  4
2982  2
2983  3
2984  1
2985  0
2986  1
2987  1
2988  1
2989  0
2990  2
2991  3
2992  3
2993  1
2994  3
2995  1
2996  1
2997  0
2998  2
2999  1
3000  3
3001  4
3002  1
3003  1
3004  3
3005  2
3006  1
3007  0
3008  1
3009  0
3010  3
3011  2
3012  0
3013  1
3014  2
3015  0
3016  3
3017  5
3018  1
3019  0
3020  0
3021  0
3022  1
3023  2
3024  2
3025  1
3026  2
3027  2
3028  2
3029  4
3030  2
3031  1
3032  2
3033  0
3034  2
3035  3
3036  2
3037  0
3038  0
3039  1
3040  1
3041  0
3042  1
3043  1
3044  1
3045  0
3046  0
3047  0
3048  0
3049  3
3050  1
3051  1
3052  0
3053  0
3054  1
3055  2
3056  1
3057  0
3058  0
3059  0
3060  0
3061  1
3062  2
3063  0
3064  1
3065  2
3066  0
3067  0
3068  2
3069  2
3070  1
3071  0
3072  0
3073  0
3074  1
3075  0
3076  1
3077  1
3078  0
3079  2
3080  1
3081  0
3082  0
3083  1
3084  1
3085  1
3086  0
3087  0
3088  1
3089  0
3090  1
3091  1
3092  0
3093  0
3094  1
3095  0
3096  0
3097  2
3098  0
3099  1
3100  0
3101  2
3102  0
3103  1
3104  1
3105  0
3106  1
3107  0
3108  2
3109  3
3110  1
3111  1
3112  1
3113  0
3114  3
3115  1
3116  0
3117  1
3118  2
3119  0
3120  3
3121  1
3122  2
3123  3
3124  2
3125  0
3126  0
3127  2
3128  0
3129  0
3130  0
3131  0
3132  2
3133  0
3134  0
3135  1
3136  1
3137  0
3138  3
3139  1
3140  0
3141  3
3142  0
3143  1
3144  0
3145  0
3146  2
3147  1
3148  1
3149  0
3150  1
3151  0
3152  0
3153  1
3154  3
3155  0
3156  0
3157  3
3158  0
3159  2
3160  0
3161  0
3162  0
3163  1
3164  1
3165  1
3166  1
3167  2
3168  0
3169  0
3170  0
3171  0
3172  0
3173  1
3174  1
3175  2
3176  0
3177  1
3178  0
3179  1
3180  3
3181  4
3182  3
3183  2
3184  2
3185  1
3186  1
3187  0
3188  1
3189  1
3190  1
3191  1
3192  0
3193  1
3194  0
3195  1
3196  0
3197  0
3198  0
3199  0
3200  0
3201  0
3202  0
3203  0
3204  2
3205  1
3206  1
3207  0
3208  1
3209  0
3210  0
3211  0
3212  1
3213  2
3214  2
3215  1
3216  1
3217  2
3218  0
3219  1
3220  0
3221  1
3222  1
3223  0
3224  1
3225  0
3226  3
3227  0
3228  1
3229  1
3230  3
3231  0
3232  0
3233  1
3234  1
3235  0
3236  0
3237  1
3238  0
3239  0
3240  0
3241  1
3242  0
3243  2
3244  1
3245  1
3246  0
3247  0
3248  0
3249  0
3250  1
3251  0
3252  1
3253  1
3254  1
3255  0
3256  0
3257  0
3258  0
3259  1
3260  1
3261  0
3262  1
3263  1
3264  0
3265  1
3266  1
3267  1
3268  2
3269  1
3270  0
3271  2
3272  0
3273  0
3274  0
3275  0
3276  0
3277  0
3278  3
3279  0
3280  1
3281  0
3282  1
3283  0
3284  1
3285  0
3286  1
3287  1
3288  2
3289  0
3290  1
3291  1
3292  1
3293  3
3294  0
3295  1
3296  2
3297  0
3298  0
3299  0
3300  0
3301  2
3302  1
3303  0
3304  0
3305  2
3306  0
3307  2
3308  0
3309  0
3310  1
3311  2
3312  0
3313  1
3314  1
3315  1
3316  2
3317  1
3318  2
3319  1
3320  2
3321  0
3322  0
3323  0
3324  0
3325  1
3326  2
3327  0
3328  0
3329  0
3330  0
3331  0
3332  0
3333  2
3334  0
3335  0
3336  0
3337  0
3338  2
3339  0
3340  1
3341  0
3342  0
3343  0
3344  0
3345  0
3346  1
3347  0
3348  1
3349  0
3350  0
3351  0
3352  0
3353  1
3354  2
3355  0
3356  0
3357  0
3358  1
3359  0
3360  0
3361  0
3362  0
3363  0
3364  0
3365  0
3366  0
3367  2
3368  0
3369  0
3370  3
3371  1
3372  1
3373  0
3374  1
3375  0
3376  1
3377  0
3378  0
3379  0
3380  1
3381  0
3382  1
3383  0
3384  1
3385  0
3386  1
3387  0
3388  2
3389  2
3390  0
3391  0
3392  0
3393  0
3394  1
3395  2
3396  1
3397  0
3398  0
3399  1
3400  0
3401  0
3402  0
3403  1
3404  0
3405  0
3406  1
3407  0
3408  0
3409  0
3410  0
3411  1
3412  1
3413  1
3414  1
3415  0
3416  0
3417  1
3418  0
3419  1
3420  0
3421  1
3422  0
3423  1
3424  1
3425  1
3426  1
3427  0
3428  0
3429  0
3430  0
3431  1
3432  1
3433  0
3434  0
3435  0
3436  2
3437  1
3438  0
3439  1
3440  2
3441  0
3442  1
3443  0
3444  0
3445  0
3446  0
3447  0
3448  1
3449  3
3450  1
3451  0
3452  0
3453  0
3454  1
3455  1
3456  1
3457  0
3458  0
3459  1
3460  1
3461  2
3462  0
3463  1
3464  0
3465  0
3466  1
3467  0
3468  0
3469  1
3470  0
3471  0
3472  0
3473  0
3474  1
3475  1
3476  0
3477  0
3478  0
3479  2
3480  2
3481  1
3482  0
3483  2
3484  0
3485  0
3486  2
3487  0
3488  0
3489  0
3490  0
3491  0
3492  0
3493  1
3494  2
3495  1
3496  1
3497  0
3498  0
3499  0
3500  0
3501  0
3502  0
3503  1
3504  1
3505  0
3506  1
3507  1
3508  0
3509  0
3510  0
3511  2
3512  0
3513  1
3514  0
3515  0
3516  0
3517  1
3518  3
3519  1
3520  3
3521  0
3522  1
3523  1
3524  1
3525  0
3526  1
3527  0
3528  2
3529  0
3530  0
3531  0
3532  0
3533  0
3534  0
3535  0
3536  1
3537  0
3538  3
3539  1
3540  0
3541  0
3542  2
3543  1
3544  2
3545  0
3546  2
3547  0
3548  1
3549  1
3550  0
3551  2
3552  1
3553  1
3554  1
3555  0
3556  0
3557  0
3558  0
3559  1
3560  2
3561  0
3562  3
3563  1
3564  1
3565  1
3566  1
3567  0
3568  0
3569  0
3570  1
3571  1
3572  0
3573  0
3574  1
3575  0
3576  0
3577  0
3578  0
3579  0
3580  1
3581  0
3582  0
3583  0
3584  1
3585  0
3586  0
3587  0
3588  0
3589  0
3590  0
3591  0
3592  0
3593  3
3594  3
3595  1
3596  1
3597  0
3598  0
3599  0
3600  2
3601  0
3602  1
3603  0
3604  0
3605  1
3606  1
3607  0
3608  0
3609  1
3610  0
3611  0
3612  0
3613  2
3614  0
3615  0
3616  0
3617  1
3618  1
3619  1
3620  1
3621  2
3622  0
3623  1
3624  0
3625  1
3626  0
3627  0
3628  0
3629  1
3630  1
3631  3
3632  1
3633  0
3634  1
3635  0
3636  0
3637  0
3638  1
3639  0
3640  0
3641  0
3642  0
3643  2
3644  0
3645  0
3646  0
3647  1
3648  2
3649  3
3650  0
3651  0
3652  1
3653  1
3654  3
3655  1
3656  2
3657  0
3658  1
3659  0
3660  2
3661  1
3662  0
3663  2
3664  1
3665  0
3666  0
3667  0
3668  1
3669  0
3670  1
3671  0
3672  1
3673  0
3674  1
3675  0
3676  0
3677  2
3678  1
3679  1
3680  0
3681  0
3682  0
3683  0
3684  0
3685  0
3686  0
3687  1
3688  1
3689  0
3690  0
3691  2
3692  0
3693  0
3694  0
3695  0
3696  1
3697  0
3698  0
3699  0
3700  0
3701  1
3702  0
3703  0
3704  2
3705  1
3706  2
3707  1
3708  0
3709  0
3710  0
3711  0
3712  0
3713  0
3714  1
3715  0
3716  1
3717  0
3718  0
3719  0
3720  1
3721  1
3722  0
3723  1
3724  0
3725  0
3726  0
3727  0
3728  1
3729  0
3730  0
3731  0
3732  0
3733  0
3734  2
3735  2
3736  1
3737  1
3738  0
3739  0
3740  3
3741  1
3742  0
3743  0
3744  1
3745  0
3746  0
3747  0
3748  0
3749  1
3750  0
3751  0
3752  1
3753  1
3754  2
3755  0
3756  0
3757  1
3758  2
3759  0
3760  0
3761  1
3762  0
3763  1
3764  4
3765  0
3766  0
3767  2
3768  0
3769  1
3770  0
3771  1
3772  0
3773  0
3774  1
3775  1
3776  0
3777  0
3778  1
3779  2
3780  0
3781  1
3782  0
3783  0
3784  1
3785  0
3786  1
3787  0
3788  0
3789  0
3790  0
3791  0
3792  2
3793  0
3794  1
3795  0
3796  0
3797  0
3798  1
3799  1
3800  0
3801  0
3802  0
3803  1
3804  1
3805  2
3806  1
3807  0
3808  0
3809  1
3810  1
3811  0
3812  0
3813  0
3814  0
3815  0
3816  0
3817  0
3818  0
3819  1
3820  0
3821  0
3822  0
3823  0
3824  1
3825  0
3826  0
3827  1
3828  0
3829  0
3830  1
3831  0
3832  1
3833  0
3834  0
3835  0
3836  0
3837  1
3838  1
3839  0
3840  0
3841  0
3842  0
3843  0
3844  0
3845  0
3846  0
3847  0
3848  0
3849  0
3850  0
3851  0
3852  0
3853  0
3854  0
3855  0
3856  0
3857  0
3858  0
3859  0
3860  0
3861  0
3862  0
3863  0
3864  0
3865  0
3866  0
3867  0
3868  0
3869  0
3870  0
3871  0
3872  0
3873  0
3874  0
3875  0
3876  0
3877  0
3878  0
3879  0
3880  0
3881  0
3882  0
3883  0
3884  0
3885  0
3886  0
3887  0
3888  0
3889  0
3890  0
3891  0
3892  0
3893  0
3894  0
3895  0
3896  0
3897  0
3898  0
3899  0
3900  0
3901  0
3902  0
3903  0
3904  0
3905  0
3906  0
3907  0
3908  0
3909  0
3910  0
3911  0
3912  0
3913  0
3914  0
3915  0
3916  0
3917  0
3918  0
3919  0
3920  0
3921  0
3922  0
3923  0
3924  0
3925  0
3926  0
3927  0
3928  0
3929  0
3930  0
3931  0
3932  0
3933  0
3934  0
3935  0
3936  0
3937  0
3938  0
3939  0
3940  0
3941  0
3942  0
3943  0
3944  0
3945  0
3946  0
3947  0
3948  0
3949  0
3950  0
3951  0
3952  0
3953  0
3954  0
3955  0
3956  0
3957  0
3958  0
3959  0
3960  0
3961  0
3962  0
3963  0
3964  0
3965  0
3966  0
3967  0
3968  0
3969  0
3970  0
3971  0
3972  0
3973  0
3974  0
3975  0
3976  0
3977  0
3978  0
3979  0
3980  0
3981  0
3982  0
3983  0
3984  0
3985  0
3986  0
3987  0
3988  0
3989  0
3990  0
3991  0
3992  0
3993  0
3994  0
3995  0
3996  0
3997  0
3998  0
3999  0
4000  0
4001  0
4002  0
4003  0
4004  0
4005  0
4006  0
4007  0
4008  0
4009  0
4010  0
4011  0
4012  0
4013  0
4014  0
4015  0
4016  0
4017  0
4018  0
4019  0
4020  0
4021  0
4022  0
4023  0
4024  0
4025  0
4026  0
4027  0
4028  0
4029  0
4030  0
4031  0
4032  0
4033  0
4034  0
4035  0
4036  0
4037  0
4038  0
4039  0
4040  0
4041  0
4042  0
4043  0
4044  0
4045  0
4046  0
4047  0
4048  0
4049  0
4050  0
4051  0
4052  0
4053  0
4054  0
4055  0
4056  0
4057  0
4058  0
4059  0
4060  0
4061  0
4062  0
4063  0
4064  0
4065  0
4066  0
4067  0
4068  0
4069  0
4070  0
4071  0
4072  0
4073  0
4074  0
4075  0
4076  0
4077  0
4078  0
4079  0
4080  0
4081  0
4082  0
4083  0
4084  0
4085  0
4086  0
4087  0
4088  0
4089  0
4090  0
4091  0
4092  0
4093  0
4094  0
4095  0
