0  368
1  449
2  566
3  690
4  862
5  1043
6  1164
7  1389
8  1497
9  1648
10  1899
11  2101
12  2176
13  2363
14  2382
15  2518
16  2427
17  2486
18  2346
19  2298
20  2170
21  2088
22  1909
23  1734
24  1577
25  1389
26  1230
27  1068
28  892
29  698
30  631
31  520
32  400
33  359
34  249
35  224
36  171
37  136
38  91
39  78
40  63
41  44
42  32
43  28
44  19
45  13
46  10
47  6
48  2
49  6
50  2
51  5
52  1
53  0
54  0
55  0
56  0
57  0
58  0
59  0
60  0
61  1
62  0
63  0
64  1
65  0
66  0
67  0
68  0
69  0
70  0
71  0
72  0
73  0
74  1
75  0
76  0
77  0
78  0
79  0
80  0
81  0
82  0
83  0
84  0
85  0
86  0
87  0
88  0
89  0
90  0
91  0
92  0
93  0
94  0
95  0
96  0
97  0
98  1
99  0
100  0
101  0
102  0
103  0
104  0
105  1
106  0
107  0
108  0
109  0
110  0
111  0
112  1
113  0
114  0
115  0
116  0
117  0
118  1
119  0
120  0
121  0
122  0
123  0
124  0
125  0
126  0
127  0
128  0
129  0
130  1
131  0
132  0
133  0
134  0
135  0
136  0
137  0
138  0
139  0
140  0
141  0
142  0
143  0
144  0
145  0
146  0
147  0
148  0
149  0
150  0
151  0
152  0
153  0
154  0
155  0
156  0
157  0
158  0
159  0
160  0
161  0
162  0
163  0
164  0
165  1
166  0
167  0
168  0
169  0
170  0
171  0
172  0
173  0
174  0
175  1
176  0
177  0
178  0
179  0
180  0
181  0
182  0
183  0
184  0
185  0
186  0
187  1
188  1
189  0
190  2
191  2
192  4
193  1
194  1
195  4
196  4
197  4
198  10
199  16
200  16
201  18
202  38
203  36
204  34
205  44
206  44
207  59
208  53
209  71
210  85
211  91
212  87
213  112
214  101
215  109
216  101
217  105
218  113
219  124
220  109
221  126
222  107
223  97
224  106
225  90
226  115
227  99
228  91
229  78
230  77
231  82
232  74
233  53
234  52
235  44
236  50
237  31
238  37
239  33
240  26
241  26
242  29
243  34
244  30
245  27
246  37
247  34
248  26
249  20
250  22
251  27
252  28
253  22
254  24
255  31
256  26
257  26
258  26
259  27
260  22
261  27
262  20
263  25
264  27
265  19
266  23
267  24
268  21
269  24
270  19
271  19
272  27
273  20
274  29
275  22
276  33
277  16
278  23
279  27
280  26
281  17
282  17
283  18
284  32
285  27
286  20
287  17
288  25
289  23
290  25
291  27
292  15
293  26
294  20
295  21
296  20
297  23
298  16
299  24
300  22
301  18
302  25
303  25
304  26
305  23
306  22
307  14
308  23
309  17
310  11
311  22
312  17
313  30
314  21
315  20
316  21
317  24
318  21
319  24
320  22
321  28
322  20
323  22
324  24
325  19
326  20
327  27
328  17
329  26
330  29
331  15
332  24
333  24
334  22
335  39
336  20
337  24
338  25
339  35
340  29
341  20
342  24
343  21
344  25
345  16
346  23
347  17
348  22
349  29
350  28
351  17
352  22
353  30
354  25
355  18
356  20
357  23
358  21
359  20
360  32
361  27
362  34
363  27
364  19
365  11
366  29
367  20
368  24
369  22
370  17
371  18
372  19
373  30
374  24
375  27
376  28
377  25
378  16
379  25
380  17
381  26
382  36
383  19
384  14
385  23
386  22
387  21
388  23
389  24
390  25
391  26
392  24
393  34
394  18
395  28
396  23
397  33
398  17
399  26
400  19
401  31
402  29
403  18
404  23
405  22
406  24
407  25
408  31
409  17
410  24
411  32
412  18
413  21
414  25
415  24
416  21
417  27
418  11
419  25
420  24
421  19
422  24
423  27
424  31
425  29
426  27
427  27
428  21
429  23
430  27
431  29
432  23
433  37
434  22
435  28
436  22
437  26
438  16
439  25
440  18
441  23
442  21
443  25
444  21
445  23
446  29
447  18
448  35
449  23
450  15
451  24
452  27
453  24
454  20
455  22
456  24
457  27
458  21
459  23
460  27
461  27
462  28
463  31
464  28
465  29
466  19
467  25
468  21
469  25
470  24
471  22
472  25
473  19
474  32
475  21
476  25
477  21
478  23
479  24
480  15
481  22
482  25
483  28
484  19
485  25
486  30
487  17
488  23
489  27
490  25
491  24
492  31
493  31
494  20
495  17
496  26
497  17
498  20
499  24
500  18
501  26
502  25
503  27
504  30
505  21
506  26
507  20
508  22
509  24
510  22
511  25
512  28
513  19
514  27
515  29
516  24
517  13
518  23
519  20
520  20
521  27
522  23
523  22
524  28
525  19
526  30
527  20
528  17
529  19
530  25
531  30
532  24
533  11
534  27
535  24
536  19
537  24
538  24
539  23
540  30
541  17
542  32
543  26
544  27
545  19
546  27
547  29
548  39
549  29
550  24
551  23
552  29
553  28
554  24
555  25
556  29
557  18
558  18
559  25
560  30
561  20
562  26
563  29
564  24
565  26
566  20
567  27
568  19
569  24
570  21
571  22
572  24
573  27
574  24
575  38
576  21
577  29
578  18
579  29
580  20
581  24
582  19
583  21
584  15
585  24
586  24
587  35
588  19
589  31
590  23
591  28
592  24
593  24
594  34
595  20
596  30
597  25
598  26
599  23
600  31
601  25
602  31
603  25
604  19
605  16
606  30
607  30
608  26
609  26
610  18
611  30
612  14
613  18
614  21
615  28
616  21
617  34
618  28
619  19
620  22
621  22
622  26
623  25
624  26
625  15
626  25
627  20
628  21
629  19
630  22
631  29
632  18
633  31
634  22
635  23
636  27
637  21
638  30
639  28
640  27
641  29
642  27
643  23
644  17
645  33
646  30
647  26
648  30
649  21
650  23
651  20
652  23
653  18
654  21
655  31
656  26
657  35
658  27
659  21
660  25
661  19
662  19
663  30
664  28
665  18
666  21
667  24
668  29
669  27
670  19
671  17
672  29
673  23
674  26
675  33
676  25
677  16
678  25
679  34
680  14
681  23
682  25
683  23
684  25
685  26
686  33
687  24
688  24
689  25
690  29
691  20
692  30
693  27
694  23
695  24
696  23
697  20
698  23
699  25
700  28
701  25
702  26
703  24
704  21
705  31
706  26
707  28
708  15
709  25
710  25
711  29
712  25
713  20
714  28
715  22
716  21
717  28
718  27
719  18
720  25
721  27
722  27
723  22
724  26
725  25
726  22
727  25
728  22
729  19
730  24
731  25
732  19
733  21
734  35
735  22
736  26
737  22
738  28
739  19
740  14
741  27
742  24
743  19
744  20
745  21
746  20
747  19
748  24
749  29
750  31
751  20
752  22
753  29
754  29
755  19
756  27
757  20
758  25
759  17
760  33
761  19
762  21
763  28
764  12
765  30
766  18
767  20
768  23
769  25
770  36
771  32
772  23
773  23
774  28
775  24
776  21
777  29
778  22
779  18
780  26
781  29
782  33
783  21
784  23
785  34
786  23
787  33
788  27
789  27
790  24
791  18
792  13
793  30
794  29
795  26
796  15
797  22
798  25
799  33
800  16
801  27
802  28
803  20
804  25
805  21
806  25
807  30
808  26
809  30
810  22
811  20
812  20
813  31
814  27
815  26
816  26
817  25
818  24
819  23
820  23
821  26
822  26
823  19
824  26
825  20
826  21
827  22
828  33
829  25
830  23
831  24
832  19
833  37
834  22
835  24
836  33
837  27
838  31
839  19
840  19
841  25
842  24
843  23
844  21
845  22
846  22
847  21
848  25
849  20
850  27
851  24
852  24
853  26
854  21
855  26
856  28
857  16
858  24
859  27
860  22
861  27
862  18
863  30
864  28
865  24
866  28
867  25
868  33
869  20
870  25
871  19
872  17
873  36
874  32
875  26
876  21
877  36
878  19
879  28
880  24
881  22
882  27
883  34
884  24
885  20
886  29
887  21
888  16
889  21
890  28
891  25
892  25
893  29
894  26
895  17
896  38
897  22
898  18
899  31
900  19
901  19
902  27
903  28
904  26
905  33
906  26
907  30
908  23
909  25
910  28
911  20
912  27
913  29
914  21
915  20
916  29
917  24
918  24
919  30
920  22
921  27
922  28
923  27
924  24
925  28
926  22
927  23
928  30
929  17
930  29
931  26
932  19
933  20
934  29
935  28
936  22
937  14
938  24
939  32
940  37
941  26
942  13
943  29
944  28
945  20
946  17
947  21
948  18
949  20
950  20
951  24
952  31
953  22
954  16
955  27
956  19
957  20
958  25
959  29
960  24
961  22
962  26
963  24
964  23
965  17
966  24
967  23
968  23
969  27
970  28
971  24
972  27
973  23
974  31
975  28
976  22
977  22
978  25
979  29
980  27
981  31
982  25
983  24
984  34
985  29
986  31
987  30
988  28
989  26
990  30
991  25
992  21
993  20
994  20
995  26
996  27
997  28
998  23
999  18
1000  31
1001  33
1002  37
1003  23
1004  27
1005  33
1006  24
1007  25
1008  22
1009  39
1010  39
1011  24
1012  27
1013  23
1014  27
1015  26
1016  24
1017  22
1018  27
1019  25
1020  28
1021  19
1022  33
1023  27
1024  26
1025  25
1026  28
1027  28
1028  25
1029  21
1030  32
1031  24
1032  21
1033  20
1034  31
1035  23
1036  28
1037  29
1038  30
1039  36
1040  26
1041  26
1042  23
1043  27
1044  25
1045  39
1046  29
1047  28
1048  32
1049  27
1050  36
1051  27
1052  28
1053  17
1054  26
1055  30
1056  27
1057  30
1058  25
1059  36
1060  29
1061  28
1062  22
1063  33
1064  32
1065  37
1066  13
1067  29
1068  31
1069  26
1070  32
1071  27
1072  37
1073  22
1074  35
1075  38
1076  35
1077  26
1078  27
1079  44
1080  23
1081  34
1082  33
1083  27
1084  29
1085  31
1086  37
1087  35
1088  26
1089  29
1090  32
1091  31
1092  29
1093  25
1094  19
1095  34
1096  26
1097  35
1098  27
1099  38
1100  28
1101  34
1102  34
1103  31
1104  32
1105  34
1106  28
1107  21
1108  34
1109  36
1110  27
1111  31
1112  35
1113  35
1114  33
1115  24
1116  32
1117  36
1118  22
1119  29
1120  37
1121  36
1122  28
1123  22
1124  30
1125  23
1126  38
1127  23
1128  34
1129  28
1130  33
1131  30
1132  30
1133  37
1134  28
1135  35
1136  27
1137  34
1138  37
1139  25
1140  28
1141  39
1142  29
1143  29
1144  35
1145  32
1146  29
1147  49
1148  36
1149  43
1150  25
1151  38
1152  47
1153  24
1154  30
1155  38
1156  40
1157  44
1158  28
1159  38
1160  30
1161  38
1162  34
1163  34
1164  37
1165  37
1166  33
1167  27
1168  42
1169  34
1170  31
1171  39
1172  34
1173  33
1174  31
1175  40
1176  32
1177  27
1178  39
1179  38
1180  42
1181  43
1182  35
1183  43
1184  31
1185  39
1186  37
1187  34
1188  30
1189  29
1190  46
1191  34
1192  48
1193  34
1194  38
1195  38
1196  39
1197  39
1198  39
1199  26
1200  42
1201  38
1202  35
1203  39
1204  36
1205  36
1206  32
1207  32
1208  44
1209  32
1210  32
1211  36
1212  27
1213  39
1214  54
1215  44
1216  38
1217  35
1218  30
1219  38
1220  37
1221  43
1222  48
1223  32
1224  32
1225  30
1226  37
1227  48
1228  39
1229  43
1230  44
1231  37
1232  48
1233  40
1234  34
1235  39
1236  46
1237  34
1238  29
1239  45
1240  33
1241  38
1242  53
1243  43
1244  33
1245  36
1246  37
1247  35
1248  43
1249  55
1250  36
1251  50
1252  44
1253  33
1254  50
1255  35
1256  45
1257  52
1258  35
1259  46
1260  48
1261  43
1262  32
1263  41
1264  38
1265  38
1266  38
1267  46
1268  36
1269  50
1270  47
1271  56
1272  43
1273  35
1274  50
1275  54
1276  38
1277  41
1278  48
1279  51
1280  51
1281  50
1282  44
1283  40
1284  54
1285  53
1286  55
1287  51
1288  44
1289  50
1290  46
1291  55
1292  50
1293  37
1294  47
1295  53
1296  55
1297  55
1298  66
1299  44
1300  58
1301  50
1302  52
1303  33
1304  44
1305  40
1306  46
1307  52
1308  55
1309  56
1310  57
1311  40
1312  60
1313  48
1314  56
1315  41
1316  48
1317  42
1318  50
1319  47
1320  52
1321  51
1322  54
1323  57
1324  50
1325  44
1326  49
1327  52
1328  47
1329  65
1330  41
1331  65
1332  43
1333  44
1334  60
1335  53
1336  53
1337  55
1338  62
1339  45
1340  58
1341  62
1342  52
1343  61
1344  52
1345  43
1346  62
1347  55
1348  48
1349  57
1350  52
1351  62
1352  60
1353  49
1354  60
1355  50
1356  61
1357  64
1358  59
1359  50
1360  45
1361  54
1362  54
1363  62
1364  44
1365  55
1366  66
1367  46
1368  62
1369  50
1370  61
1371  57
1372  52
1373  73
1374  53
1375  58
1376  60
1377  56
1378  65
1379  54
1380  74
1381  67
1382  50
1383  57
1384  62
1385  61
1386  57
1387  66
1388  71
1389  76
1390  71
1391  73
1392  51
1393  72
1394  54
1395  67
1396  71
1397  60
1398  58
1399  64
1400  53
1401  67
1402  52
1403  59
1404  63
1405  49
1406  67
1407  79
1408  75
1409  66
1410  58
1411  65
1412  71
1413  53
1414  73
1415  62
1416  65
1417  69
1418  56
1419  69
1420  62
1421  52
1422  75
1423  65
1424  73
1425  65
1426  71
1427  67
1428  76
1429  64
1430  63
1431  59
1432  56
1433  79
1434  66
1435  76
1436  62
1437  61
1438  64
1439  58
1440  64
1441  74
1442  57
1443  62
1444  66
1445  65
1446  82
1447  76
1448  71
1449  71
1450  78
1451  80
1452  62
1453  66
1454  84
1455  76
1456  61
1457  57
1458  71
1459  58
1460  75
1461  78
1462  76
1463  65
1464  68
1465  94
1466  60
1467  72
1468  82
1469  56
1470  76
1471  86
1472  64
1473  73
1474  103
1475  66
1476  77
1477  80
1478  84
1479  68
1480  71
1481  78
1482  75
1483  78
1484  70
1485  60
1486  65
1487  78
1488  82
1489  58
1490  78
1491  75
1492  64
1493  75
1494  80
1495  87
1496  75
1497  70
1498  77
1499  88
1500  88
1501  73
1502  73
1503  90
1504  65
1505  65
1506  91
1507  79
1508  87
1509  70
1510  81
1511  68
1512  88
1513  89
1514  88
1515  80
1516  95
1517  99
1518  79
1519  73
1520  78
1521  97
1522  92
1523  75
1524  88
1525  76
1526  71
1527  73
1528  83
1529  82
1530  100
1531  99
1532  103
1533  87
1534  96
1535  78
1536  87
1537  85
1538  91
1539  82
1540  91
1541  93
1542  103
1543  76
1544  107
1545  75
1546  92
1547  84
1548  100
1549  96
1550  87
1551  96
1552  68
1553  77
1554  82
1555  102
1556  95
1557  83
1558  97
1559  79
1560  89
1561  95
1562  75
1563  86
1564  81
1565  89
1566  96
1567  88
1568  84
1569  96
1570  95
1571  112
1572  98
1573  99
1574  88
1575  100
1576  104
1577  99
1578  94
1579  96
1580  96
1581  104
1582  99
1583  94
1584  103
1585  85
1586  79
1587  94
1588  82
1589  108
1590  108
1591  104
1592  81
1593  89
1594  106
1595  85
1596  90
1597  92
1598  108
1599  94
1600  108
1601  78
1602  81
1603  91
1604  108
1605  103
1606  74
1607  96
1608  103
1609  102
1610  69
1611  100
1612  102
1613  96
1614  108
1615  100
1616  86
1617  100
1618  90
1619  92
1620  114
1621  109
1622  112
1623  123
1624  123
1625  97
1626  88
1627  97
1628  96
1629  91
1630  119
1631  103
1632  110
1633  107
1634  102
1635  102
1636  88
1637  104
1638  112
1639  88
1640  125
1641  108
1642  102
1643  108
1644  97
1645  104
1646  120
1647  90
1648  118
1649  121
1650  110
1651  101
1652  119
1653  112
1654  101
1655  99
1656  115
1657  117
1658  116
1659  111
1660  115
1661  116
1662  104
1663  114
1664  102
1665  114
1666  120
1667  114
1668  117
1669  88
1670  111
1671  130
1672  124
1673  121
1674  112
1675  117
1676  113
1677  132
1678  103
1679  119
1680  96
1681  106
1682  89
1683  117
1684  115
1685  124
1686  118
1687  124
1688  128
1689  115
1690  97
1691  150
1692  123
1693  111
1694  108
1695  124
1696  122
1697  113
1698  121
1699  106
1700  105
1701  116
1702  120
1703  123
1704  125
1705  119
1706  121
1707  116
1708  127
1709  96
1710  124
1711  126
1712  123
1713  114
1714  131
1715  115
1716  131
1717  129
1718  109
1719  111
1720  133
1721  117
1722  105
1723  127
1724  142
1725  126
1726  115
1727  134
1728  139
1729  111
1730  123
1731  124
1732  122
1733  123
1734  122
1735  153
1736  140
1737  118
1738  131
1739  153
1740  137
1741  133
1742  126
1743  154
1744  119
1745  137
1746  125
1747  129
1748  105
1749  118
1750  125
1751  119
1752  131
1753  160
1754  122
1755  128
1756  135
1757  124
1758  121
1759  149
1760  133
1761  134
1762  147
1763  121
1764  138
1765  145
1766  124
1767  139
1768  135
1769  123
1770  134
1771  145
1772  127
1773  145
1774  165
1775  134
1776  140
1777  135
1778  157
1779  130
1780  147
1781  133
1782  134
1783  122
1784  140
1785  131
1786  138
1787  124
1788  133
1789  116
1790  148
1791  149
1792  136
1793  124
1794  148
1795  140
1796  134
1797  136
1798  143
1799  132
1800  152
1801  125
1802  120
1803  146
1804  154
1805  138
1806  148
1807  146
1808  138
1809  133
1810  132
1811  141
1812  141
1813  121
1814  153
1815  149
1816  152
1817  155
1818  134
1819  153
1820  156
1821  127
1822  160
1823  155
1824  150
1825  149
1826  156
1827  174
1828  161
1829  135
1830  146
1831  157
1832  124
1833  154
1834  155
1835  146
1836  140
1837  143
1838  133
1839  141
1840  143
1841  136
1842  140
1843  160
1844  144
1845  136
1846  135
1847  138
1848  147
1849  175
1850  177
1851  170
1852  138
1853  141
1854  145
1855  155
1856  164
1857  139
1858  142
1859  173
1860  136
1861  149
1862  143
1863  150
1864  163
1865  167
1866  166
1867  161
1868  166
1869  173
1870  169
1871  165
1872  174
1873  171
1874  156
1875  146
1876  171
1877  135
1878  149
1879  159
1880  153
1881  180
1882  170
1883  154
1884  141
1885  165
1886  178
1887  151
1888  167
1889  157
1890  145
1891  141
1892  141
1893  155
1894  156
1895  157
1896  175
1897  153
1898  142
1899  149
1900  145
1901  161
1902  171
1903  160
1904  173
1905  151
1906  150
1907  161
1908  153
1909  168
1910  171
1911  190
1912  148
1913  177
1914  145
1915  157
1916  159
1917  169
1918  151
1919  140
1920  155
1921  176
1922  176
1923  161
1924  160
1925  161
1926  154
1927  156
1928  159
1929  178
1930  154
1931  160
1932  182
1933  179
1934  154
1935  177
1936  159
1937  154
1938  164
1939  189
1940  185
1941  186
1942  150
1943  174
1944  194
1945  148
1946  168
1947  168
1948  174
1949  173
1950  193
1951  199
1952  182
1953  171
1954  159
1955  177
1956  159
1957  185
1958  155
1959  161
1960  174
1961  153
1962  163
1963  167
1964  165
1965  168
1966  169
1967  183
1968  176
1969  181
1970  174
1971  193
1972  154
1973  169
1974  160
1975  155
1976  165
1977  156
1978  173
1979  170
1980  186
1981  183
1982  184
1983  201
1984  155
1985  172
1986  158
1987  174
1988  199
1989  193
1990  168
1991  184
1992  192
1993  175
1994  179
1995  182
1996  174
1997  206
1998  170
1999  192
2000  165
2001  201
2002  179
2003  189
2004  169
2005  195
2006  178
2007  160
2008  163
2009  191
2010  170
2011  176
2012  177
2013  178
2014  205
2015  182
2016  167
2017  186
2018  196
2019  169
2020  178
2021  203
2022  175
2023  207
2024  206
2025  175
2026  185
2027  178
2028  195
2029  196
2030  177
2031  174
2032  157
2033  178
2034  202
2035  171
2036  165
2037  185
2038  185
2039  175
2040  175
2041  199
2042  173
2043  201
2044  192
2045  174
2046  172
2047  198
2048  211
2049  204
2050  191
2051  217
2052  202
2053  183
2054  168
2055  192
2056  201
2057  194
2058  185
2059  191
2060  198
2061  164
2062  196
2063  188
2064  202
2065  208
2066  194
2067  167
2068  175
2069  165
2070  205
2071  213
2072  207
2073  169
2074  205
2075  172
2076  184
2077  188
2078  186
2079  219
2080  184
2081  191
2082  180
2083  195
2084  178
2085  191
2086  185
2087  183
2088  183
2089  202
2090  169
2091  196
2092  181
2093  197
2094  160
2095  223
2096  206
2097  191
2098  207
2099  197
2100  217
2101  184
2102  190
2103  212
2104  189
2105  180
2106  207
2107  175
2108  208
2109  186
2110  198
2111  206
2112  217
2113  185
2114  205
2115  195
2116  214
2117  188
2118  194
2119  201
2120  197
2121  194
2122  210
2123  198
2124  200
2125  208
2126  167
2127  184
2128  199
2129  185
2130  186
2131  192
2132  177
2133  200
2134  193
2135  192
2136  169
2137  193
2138  200
2139  183
2140  202
2141  171
2142  185
2143  188
2144  186
2145  206
2146  190
2147  227
2148  210
2149  187
2150  171
2151  173
2152  197
2153  197
2154  227
2155  177
2156  203
2157  213
2158  192
2159  206
2160  220
2161  218
2162  193
2163  207
2164  212
2165  185
2166  203
2167  205
2168  211
2169  204
2170  216
2171  211
2172  207
2173  219
2174  197
2175  206
2176  200
2177  216
2178  220
2179  210
2180  194
2181  206
2182  201
2183  196
2184  187
2185  186
2186  164
2187  191
2188  230
2189  196
2190  197
2191  230
2192  205
2193  200
2194  208
2195  186
2196  210
2197  216
2198  222
2199  205
2200  199
2201  220
2202  206
2203  191
2204  206
2205  214
2206  198
2207  178
2208  215
2209  201
2210  201
2211  204
2212  206
2213  181
2214  193
2215  221
2216  202
2217  189
2218  217
2219  196
2220  219
2221  214
2222  199
2223  216
2224  199
2225  208
2226  211
2227  232
2228  211
2229  207
2230  225
2231  227
2232  228
2233  193
2234  212
2235  194
2236  217
2237  209
2238  235
2239  195
2240  236
2241  204
2242  208
2243  212
2244  228
2245  208
2246  179
2247  239
2248  234
2249  219
2250  198
2251  216
2252  193
2253  219
2254  223
2255  213
2256  223
2257  200
2258  216
2259  215
2260  221
2261  197
2262  209
2263  205
2264  214
2265  206
2266  232
2267  209
2268  207
2269  235
2270  210
2271  220
2272  217
2273  242
2274  202
2275  230
2276  185
2277  208
2278  223
2279  197
2280  222
2281  228
2282  198
2283  245
2284  234
2285  229
2286  224
2287  234
2288  221
2289  224
2290  221
2291  234
2292  227
2293  193
2294  218
2295  199
2296  194
2297  233
2298  210
2299  253
2300  215
2301  222
2302  202
2303  217
2304  206
2305  214
2306  202
2307  245
2308  235
2309  212
2310  197
2311  209
2312  243
2313  215
2314  249
2315  238
2316  239
2317  231
2318  223
2319  235
2320  232
2321  222
2322  210
2323  238
2324  208
2325  228
2326  188
2327  229
2328  221
2329  225
2330  204
2331  224
2332  200
2333  186
2334  202
2335  198
2336  238
2337  186
2338  203
2339  205
2340  193
2341  203
2342  211
2343  211
2344  204
2345  216
2346  184
2347  208
2348  209
2349  216
2350  214
2351  219
2352  220
2353  224
2354  229
2355  212
2356  217
2357  239
2358  202
2359  206
2360  229
2361  222
2362  214
2363  223
2364  227
2365  209
2366  214
2367  210
2368  210
2369  204
2370  207
2371  230
2372  226
2373  235
2374  207
2375  202
2376  233
2377  240
2378  201
2379  216
2380  235
2381  225
2382  220
2383  197
2384  225
2385  238
2386  241
2387  232
2388  231
2389  217
2390  222
2391  203
2392  208
2393  223
2394  232
2395  190
2396  236
2397  208
2398  218
2399  224
2400  224
2401  193
2402  220
2403  212
2404  207
2405  202
2406  221
2407  195
2408  200
2409  234
2410  221
2411  217
2412  223
2413  210
2414  217
2415  204
2416  216
2417  196
2418  241
2419  186
2420  211
2421  204
2422  233
2423  254
2424  227
2425  231
2426  234
2427  248
2428  217
2429  217
2430  220
2431  226
2432  225
2433  216
2434  216
2435  228
2436  224
2437  233
2438  199
2439  220
2440  211
2441  224
2442  212
2443  220
2444  202
2445  209
2446  195
2447  219
2448  238
2449  224
2450  230
2451  246
2452  202
2453  186
2454  220
2455  210
2456  255
2457  207
2458  226
2459  208
2460  243
2461  221
2462  205
2463  212
2464  243
2465  188
2466  201
2467  238
2468  222
2469  198
2470  206
2471  224
2472  208
2473  198
2474  216
2475  206
2476  204
2477  216
2478  196
2479  201
2480  223
2481  212
2482  206
2483  203
2484  202
2485  218
2486  223
2487  219
2488  226
2489  185
2490  223
2491  233
2492  193
2493  236
2494  216
2495  191
2496  226
2497  185
2498  223
2499  192
2500  201
2501  232
2502  195
2503  201
2504  208
2505  208
2506  201
2507  198
2508  205
2509  212
2510  209
2511  202
2512  229
2513  214
2514  225
2515  218
2516  201
2517  175
2518  206
2519  205
2520  200
2521  187
2522  197
2523  179
2524  194
2525  201
2526  197
2527  196
2528  219
2529  202
2530  207
2531  218
2532  189
2533  209
2534  194
2535  204
2536  206
2537  204
2538  198
2539  171
2540  192
2541  191
2542  193
2543  218
2544  199
2545  182
2546  211
2547  196
2548  196
2549  199
2550  197
2551  205
2552  209
2553  187
2554  200
2555  157
2556  204
2557  185
2558  182
2559  185
2560  209
2561  179
2562  190
2563  200
2564  225
2565  193
2566  188
2567  194
2568  179
2569  211
2570  194
2571  205
2572  196
2573  185
2574  172
2575  185
2576  183
2577  179
2578  186
2579  189
2580  188
2581  175
2582  209
2583  190
2584  189
2585  173
2586  190
2587  180
2588  187
2589  188
2590  165
2591  189
2592  207
2593  177
2594  174
2595  183
2596  183
2597  192
2598  175
2599  188
2600  196
2601  183
2602  164
2603  152
2604  163
2605  170
2606  175
2607  175
2608  167
2609  165
2610  161
2611  201
2612  195
2613  181
2614  160
2615  188
2616  177
2617  147
2618  174
2619  180
2620  160
2621  195
2622  167
2623  168
2624  153
2625  171
2626  154
2627  180
2628  170
2629  161
2630  167
2631  177
2632  193
2633  172
2634  158
2635  139
2636  155
2637  180
2638  168
2639  169
2640  171
2641  185
2642  165
2643  181
2644  173
2645  180
2646  163
2647  167
2648  148
2649  160
2650  142
2651  175
2652  156
2653  162
2654  163
2655  146
2656  144
2657  150
2658  170
2659  163
2660  171
2661  154
2662  151
2663  180
2664  160
2665  150
2666  157
2667  138
2668  143
2669  152
2670  136
2671  162
2672  172
2673  159
2674  141
2675  159
2676  140
2677  147
2678  169
2679  153
2680  155
2681  139
2682  151
2683  168
2684  146
2685  126
2686  155
2687  148
2688  137
2689  158
2690  132
2691  129
2692  114
2693  143
2694  133
2695  148
2696  126
2697  136
2698  143
2699  151
2700  122
2701  146
2702  148
2703  129
2704  135
2705  147
2706  135
2707  151
2708  136
2709  130
2710  151
2711  122
2712  139
2713  139
2714  154
2715  143
2716  143
2717  152
2718  144
2719  125
2720  131
2721  141
2722  150
2723  132
2724  138
2725  147
2726  141
2727  124
2728  128
2729  138
2730  136
2731  145
2732  124
2733  139
2734  128
2735  132
2736  135
2737  133
2738  110
2739  124
2740  125
2741  144
2742  116
2743  129
2744  130
2745  115
2746  102
2747  129
2748  139
2749  131
2750  127
2751  120
2752  112
2753  125
2754  106
2755  115
2756  117
2757  117
2758  110
2759  120
2760  129
2761  108
2762  105
2763  99
2764  103
2765  115
2766  132
2767  118
2768  97
2769  101
2770  85
2771  99
2772  113
2773  94
2774  115
2775  117
2776  99
2777  95
2778  100
2779  97
2780  84
2781  95
2782  100
2783  102
2784  108
2785  92
2786  95
2787  104
2788  107
2789  118
2790  103
2791  99
2792  85
2793  108
2794  107
2795  85
2796  90
2797  100
2798  111
2799  91
2800  98
2801  94
2802  85
2803  80
2804  89
2805  83
2806  99
2807  98
2808  91
2809  93
2810  88
2811  102
2812  80
2813  83
2814  92
2815  84
2816  80
2817  90
2818  94
2819  75
2820  84
2821  80
2822  73
2823  60
2824  97
2825  77
2826  75
2827  82
2828  90
2829  71
2830  88
2831  88
2832  76
2833  81
2834  79
2835  60
2836  78
2837  79
2838  70
2839  79
2840  74
2841  68
2842  71
2843  64
2844  67
2845  57
2846  77
2847  80
2848  57
2849  52
2850  69
2851  71
2852  66
2853  60
2854  78
2855  60
2856  58
2857  67
2858  78
2859  66
2860  76
2861  72
2862  60
2863  67
2864  59
2865  61
2866  69
2867  74
2868  62
2869  67
2870  47
2871  71
2872  52
2873  59
2874  56
2875  46
2876  60
2877  75
2878  53
2879  55
2880  60
2881  62
2882  66
2883  55
2884  49
2885  55
2886  62
2887  49
2888  51
2889  52
2890  59
2891  56
2892  59
2893  61
2894  61
2895  70
2896  55
2897  49
2898  51
2899  44
2900  49
2901  55
2902  48
2903  50
2904  60
2905  58
2906  66
2907  47
2908  52
2909  44
2910  47
2911  50
2912  58
2913  61
2914  50
2915  51
2916  57
2917  54
2918  50
2919  50
2920  45
2921  41
2922  44
2923  45
2924  43
2925  36
2926  44
2927  41
2928  48
2929  53
2930  47
2931  47
2932  39
2933  57
2934  60
2935  46
2936  48
2937  39
2938  35
2939  42
2940  40
2941  42
2942  62
2943  47
2944  44
2945  36
2946  40
2947  56
2948  73
2949  43
2950  44
2951  46
2952  39
2953  45
2954  66
2955  44
2956  45
2957  45
2958  47
2959  45
2960  46
2961  46
2962  51
2963  45
2964  55
2965  39
2966  43
2967  43
2968  48
2969  34
2970  28
2971  42
2972  57
2973  45
2974  48
2975  45
2976  51
2977  38
2978  37
2979  33
2980  36
2981  40
2982  34
2983  45
2984  41
2985  46
2986  36
2987  40
2988  54
2989  44
2990  49
2991  40
2992  44
2993  47
2994  37
2995  44
2996  40
2997  44
2998  42
2999  32
3000  46
3001  39
3002  35
3003  29
3004  35
3005  34
3006  60
3007  39
3008  36
3009  38
3010  37
3011  55
3012  40
3013  32
3014  27
3015  37
3016  35
3017  41
3018  42
3019  39
3020  40
3021  36
3022  29
3023  44
3024  32
3025  47
3026  26
3027  41
3028  30
3029  37
3030  40
3031  35
3032  30
3033  31
3034  26
3035  32
3036  41
3037  35
3038  34
3039  29
3040  39
3041  26
3042  34
3043  36
3044  27
3045  40
3046  27
3047  29
3048  44
3049  40
3050  22
3051  38
3052  33
3053  41
3054  25
3055  23
3056  34
3057  41
3058  32
3059  28
3060  38
3061  26
3062  36
3063  23
3064  25
3065  29
3066  17
3067  30
3068  26
3069  22
3070  34
3071  24
3072  31
3073  28
3074  26
3075  25
3076  24
3077  34
3078  15
3079  20
3080  19
3081  20
3082  20
3083  21
3084  20
3085  21
3086  21
3087  26
3088  27
3089  23
3090  21
3091  20
3092  21
3093  17
3094  22
3095  18
3096  35
3097  16
3098  24
3099  22
3100  22
3101  17
3102  25
3103  35
3104  11
3105  32
3106  27
3107  18
3108  32
3109  31
3110  28
3111  21
3112  27
3113  25
3114  28
3115  18
3116  23
3117  28
3118  27
3119  21
3120  23
3121  21
3122  15
3123  19
3124  35
3125  27
3126  24
3127  15
3128  18
3129  25
3130  21
3131  25
3132  27
3133  25
3134  25
3135  19
3136  19
3137  29
3138  23
3139  23
3140  22
3141  19
3142  27
3143  19
3144  28
3145  29
3146  21
3147  27
3148  29
3149  26
3150  21
3151  28
3152  28
3153  18
3154  31
3155  25
3156  20
3157  22
3158  23
3159  27
3160  24
3161  28
3162  28
3163  29
3164  31
3165  27
3166  28
3167  14
3168  23
3169  25
3170  24
3171  22
3172  21
3173  26
3174  31
3175  28
3176  23
3177  25
3178  16
3179  28
3180  27
3181  23
3182  19
3183  27
3184  20
3185  24
3186  22
3187  20
3188  27
3189  24
3190  26
3191  21
3192  26
3193  23
3194  20
3195  26
3196  14
3197  29
3198  22
3199  24
3200  26
3201  31
3202  26
3203  29
3204  36
3205  29
3206  21
3207  16
3208  15
3209  21
3210  26
3211  33
3212  16
3213  33
3214  27
3215  23
3216  30
3217  32
3218  15
3219  27
3220  24
3221  27
3222  21
3223  32
3224  36
3225  29
3226  28
3227  30
3228  25
3229  27
3230  25
3231  21
3232  30
3233  27
3234  27
3235  33
3236  23
3237  20
3238  32
3239  28
3240  27
3241  30
3242  23
3243  36
3244  21
3245  26
3246  25
3247  28
3248  22
3249  22
3250  25
3251  27
3252  32
3253  23
3254  19
3255  33
3256  32
3257  36
3258  21
3259  26
3260  15
3261  25
3262  22
3263  21
3264  22
3265  23
3266  34
3267  24
3268  31
3269  26
3270  29
3271  22
3272  26
3273  34
3274  33
3275  33
3276  28
3277  25
3278  21
3279  25
3280  30
3281  22
3282  27
3283  29
3284  36
3285  31
3286  25
3287  17
3288  32
3289  20
3290  26
3291  35
3292  23
3293  26
3294  21
3295  32
3296  36
3297  26
3298  22
3299  35
3300  25
3301  33
3302  24
3303  26
3304  28
3305  36
3306  34
3307  21
3308  31
3309  42
3310  22
3311  32
3312  36
3313  25
3314  24
3315  30
3316  40
3317  34
3318  22
3319  27
3320  29
3321  36
3322  31
3323  22
3324  20
3325  30
3326  37
3327  26
3328  24
3329  26
3330  35
3331  45
3332  39
3333  28
3334  34
3335  23
3336  37
3337  36
3338  24
3339  25
3340  34
3341  34
3342  48
3343  25
3344  29
3345  41
3346  38
3347  33
3348  42
3349  37
3350  39
3351  33
3352  41
3353  29
3354  33
3355  34
3356  39
3357  35
3358  34
3359  30
3360  40
3361  29
3362  32
3363  39
3364  40
3365  37
3366  34
3367  40
3368  28
3369  46
3370  31
3371  34
3372  40
3373  43
3374  30
3375  35
3376  30
3377  40
3378  35
3379  36
3380  36
3381  27
3382  39
3383  28
3384  36
3385  36
3386  25
3387  42
3388  34
3389  40
3390  45
3391  45
3392  33
3393  38
3394  41
3395  46
3396  57
3397  41
3398  37
3399  51
3400  40
3401  33
3402  32
3403  44
3404  29
3405  41
3406  41
3407  36
3408  41
3409  43
3410  32
3411  43
3412  50
3413  46
3414  42
3415  39
3416  41
3417  45
3418  45
3419  47
3420  48
3421  43
3422  48
3423  50
3424  39
3425  63
3426  61
3427  43
3428  67
3429  63
3430  62
3431  47
3432  62
3433  61
3434  62
3435  66
3436  64
3437  67
3438  62
3439  92
3440  80
3441  84
3442  91
3443  100
3444  120
3445  144
3446  172
3447  150
3448  197
3449  207
3450  275
3451  362
3452  417
3453  550
3454  629
3455  748
3456  893
3457  1029
3458  1248
3459  1472
3460  1649
3461  1872
3462  2157
3463  2345
3464  2599
3465  2809
3466  3131
3467  3230
3468  3377
3469  3565
3470  3660
3471  3921
3472  3712
3473  3922
3474  4005
3475  3809
3476  3846
3477  3693
3478  3542
3479  3301
3480  3142
3481  3005
3482  2921
3483  2663
3484  2535
3485  2277
3486  2141
3487  2010
3488  1790
3489  1655
3490  1591
3491  1352
3492  1221
3493  1088
3494  1032
3495  954
3496  909
3497  798
3498  749
3499  708
3500  653
3501  640
3502  529
3503  496
3504  507
3505  470
3506  421
3507  360
3508  392
3509  384
3510  333
3511  311
3512  303
3513  284
3514  267
3515  237
3516  261
3517  229
3518  196
3519  204
3520  200
3521  188
3522  176
3523  188
3524  170
3525  168
3526  168
3527  160
3528  178
3529  201
3530  169
3531  266
3532  276
3533  301
3534  394
3535  444
3536  529
3537  665
3538  731
3539  896
3540  1060
3541  1289
3542  1500
3543  1708
3544  1969
3545  2248
3546  2505
3547  2767
3548  3181
3549  3305
3550  3639
3551  3919
3552  4319
3553  4424
3554  4585
3555  4786
3556  4796
3557  4776
3558  5009
3559  5106
3560  5014
3561  4845
3562  4891
3563  4719
3564  4527
3565  4475
3566  4306
3567  4077
3568  3852
3569  3666
3570  3551
3571  3433
3572  3102
3573  3026
3574  2828
3575  2602
3576  2514
3577  2262
3578  2233
3579  1976
3580  1900
3581  1851
3582  1683
3583  1627
3584  1384
3585  1335
3586  1204
3587  1141
3588  1105
3589  1013
3590  999
3591  939
3592  920
3593  859
3594  792
3595  786
3596  735
3597  710
3598  667
3599  634
3600  657
3601  619
3602  658
3603  555
3604  637
3605  577
3606  572
3607  633
3608  601
3609  543
3610  586
3611  556
3612  610
3613  527
3614  544
3615  522
3616  507
3617  517
3618  513
3619  538
3620  516
3621  557
3622  535
3623  550
3624  580
3625  504
3626  529
3627  529
3628  584
3629  551
3630  532
3631  543
3632  538
3633  583
3634  610
3635  504
3636  510
3637  549
3638  534
3639  525
3640  485
3641  521
3642  531
3643  497
3644  521
3645  460
3646  470
3647  479
3648  455
3649  455
3650  425
3651  425
3652  408
3653  413
3654  354
3655  374
3656  379
3657  332
3658  363
3659  347
3660  321
3661  288
3662  293
3663  266
3664  233
3665  251
3666  211
3667  239
3668  237
3669  199
3670  205
3671  209
3672  180
3673  195
3674  171
3675  168
3676  156
3677  170
3678  153
3679  149
3680  146
3681  113
3682  122
3683  106
3684  112
3685  108
3686  101
3687  92
3688  81
3689  83
3690  80
3691  76
3692  74
3693  72
3694  69
3695  82
3696  63
3697  74
3698  61
3699  68
3700  65
3701  63
3702  60
3703  51
3704  61
3705  65
3706  68
3707  69
3708  63
3709  47
3710  91
3711  74
3712  92
3713  92
3714  106
3715  145
3716  151
3717  204
3718  238
3719  261
3720  374
3721  374
3722  519
3723  573
3724  693
3725  818
3726  945
3727  1039
3728  1203
3729  1384
3730  1534
3731  1600
3732  1821
3733  1900
3734  2012
3735  2141
3736  2258
3737  2272
3738  2313
3739  2388
3740  2368
3741  2455
3742  2412
3743  2327
3744  2216
3745  2147
3746  2031
3747  1915
3748  1814
3749  1756
3750  1658
3751  1410
3752  1372
3753  1308
3754  1129
3755  1140
3756  934
3757  929
3758  812
3759  759
3760  716
3761  650
3762  608
3763  543
3764  490
3765  443
3766  453
3767  442
3768  400
3769  365
3770  371
3771  319
3772  319
3773  253
3774  284
3775  274
3776  240
3777  232
3778  202
3779  184
3780  191
3781  154
3782  162
3783  137
3784  142
3785  135
3786  110
3787  114
3788  113
3789  97
3790  70
3791  103
3792  86
3793  77
3794  58
3795  78
3796  63
3797  62
3798  51
3799  51
3800  51
3801  54
3802  63
3803  50
3804  36
3805  37
3806  34
3807  29
3808  38
3809  23
3810  32
3811  37
3812  27
3813  21
3814  22
3815  21
3816  27
3817  16
3818  26
3819  25
3820  15
3821  36
3822  21
3823  25
3824  24
3825  17
3826  22
3827  17
3828  15
3829  23
3830  27
3831  20
3832  26
3833  22
3834  22
3835  32
3836  26
3837  19
3838  20
3839  17
3840  0
3841  0
3842  0
3843  0
3844  0
3845  0
3846  0
3847  0
3848  0
3849  0
3850  0
3851  0
3852  0
3853  0
3854  0
3855  0
3856  0
3857  0
3858  0
3859  0
3860  0
3861  0
3862  0
3863  0
3864  0
3865  0
3866  0
3867  0
3868  0
3869  0
3870  0
3871  0
3872  0
3873  0
3874  0
3875  0
3876  0
3877  0
3878  0
3879  0
3880  0
3881  0
3882  0
3883  0
3884  0
3885  0
3886  0
3887  0
3888  0
3889  0
3890  0
3891  0
3892  0
3893  0
3894  0
3895  0
3896  0
3897  0
3898  0
3899  0
3900  0
3901  0
3902  0
3903  0
3904  0
3905  0
3906  0
3907  0
3908  0
3909  0
3910  0
3911  0
3912  0
3913  0
3914  0
3915  0
3916  0
3917  0
3918  0
3919  0
3920  0
3921  0
3922  0
3923  0
3924  0
3925  0
3926  0
3927  0
3928  0
3929  0
3930  0
3931  0
3932  0
3933  0
3934  0
3935  0
3936  0
3937  0
3938  0
3939  0
3940  0
3941  0
3942  0
3943  0
3944  0
3945  0
3946  0
3947  0
3948  0
3949  0
3950  0
3951  0
3952  0
3953  0
3954  0
3955  0
3956  0
3957  0
3958  0
3959  0
3960  0
3961  0
3962  0
3963  0
3964  0
3965  0
3966  0
3967  0
3968  0
3969  0
3970  0
3971  0
3972  0
3973  0
3974  0
3975  0
3976  0
3977  0
3978  0
3979  0
3980  0
3981  0
3982  0
3983  0
3984  0
3985  0
3986  0
3987  0
3988  0
3989  0
3990  0
3991  0
3992  0
3993  0
3994  0
3995  0
3996  0
3997  0
3998  0
3999  0
4000  0
4001  0
4002  0
4003  0
4004  0
4005  0
4006  0
4007  0
4008  0
4009  0
4010  0
4011  0
4012  0
4013  0
4014  0
4015  0
4016  0
4017  0
4018  0
4019  0
4020  0
4021  0
4022  0
4023  0
4024  0
4025  0
4026  0
4027  0
4028  0
4029  0
4030  0
4031  0
4032  0
4033  0
4034  0
4035  0
4036  0
4037  0
4038  0
4039  0
4040  0
4041  0
4042  0
4043  0
4044  0
4045  0
4046  0
4047  0
4048  0
4049  0
4050  0
4051  0
4052  0
4053  0
4054  0
4055  0
4056  0
4057  0
4058  0
4059  0
4060  0
4061  0
4062  0
4063  0
4064  0
4065  0
4066  0
4067  0
4068  0
4069  0
4070  0
4071  0
4072  0
4073  0
4074  0
4075  0
4076  0
4077  0
4078  0
4079  0
4080  0
4081  0
4082  0
4083  0
4084  0
4085  0
4086  0
4087  0
4088  0
4089  0
4090  0
4091  0
4092  0
4093  0
4094  0
4095  0
