0  42
1  69
2  91
3  107
4  126
5  128
6  182
7  207
8  225
9  232
10  287
11  306
12  321
13  348
14  376
15  367
16  344
17  396
18  356
19  344
20  346
21  306
22  287
23  247
24  250
25  198
26  194
27  162
28  132
29  110
30  79
31  76
32  69
33  46
34  36
35  23
36  21
37  15
38  14
39  8
40  9
41  8
42  1
43  3
44  2
45  2
46  1
47  1
48  1
49  0
50  1
51  0
52  0
53  0
54  0
55  0
56  0
57  0
58  0
59  0
60  0
61  0
62  0
63  0
64  0
65  0
66  0
67  0
68  0
69  0
70  0
71  0
72  0
73  0
74  0
75  0
76  0
77  0
78  0
79  0
80  0
81  0
82  0
83  0
84  0
85  0
86  0
87  0
88  0
89  0
90  0
91  0
92  0
93  0
94  0
95  0
96  0
97  0
98  0
99  0
100  0
101  0
102  0
103  0
104  0
105  0
106  0
107  0
108  0
109  0
110  0
111  0
112  0
113  0
114  0
115  0
116  0
117  0
118  0
119  0
120  0
121  0
122  0
123  0
124  0
125  0
126  0
127  0
128  0
129  0
130  0
131  0
132  0
133  0
134  0
135  0
136  0
137  0
138  0
139  0
140  0
141  0
142  0
143  0
144  0
145  0
146  0
147  0
148  0
149  0
150  0
151  0
152  0
153  0
154  0
155  0
156  0
157  0
158  0
159  0
160  0
161  0
162  0
163  0
164  0
165  0
166  0
167  0
168  0
169  0
170  0
171  0
172  0
173  0
174  0
175  0
176  0
177  0
178  0
179  0
180  0
181  0
182  0
183  0
184  0
185  0
186  0
187  0
188  0
189  0
190  0
191  0
192  1
193  0
194  0
195  1
196  1
197  0
198  5
199  0
200  2
201  3
202  3
203  8
204  3
205  11
206  11
207  7
208  13
209  5
210  14
211  11
212  13
213  19
214  14
215  14
216  20
217  16
218  22
219  12
220  15
221  18
222  17
223  20
224  19
225  15
226  20
227  7
228  17
229  13
230  9
231  20
232  7
233  8
234  6
235  11
236  5
237  4
238  6
239  2
240  5
241  7
242  2
243  5
244  6
245  4
246  4
247  7
248  6
249  5
250  3
251  4
252  2
253  4
254  5
255  2
256  7
257  4
258  3
259  4
260  5
261  5
262  5
263  4
264  4
265  4
266  2
267  4
268  4
269  3
270  2
271  7
272  4
273  3
274  7
275  3
276  5
277  2
278  2
279  5
280  3
281  4
282  1
283  2
284  4
285  6
286  2
287  2
288  5
289  5
290  3
291  4
292  3
293  3
294  5
295  1
296  3
297  7
298  5
299  5
300  8
301  3
302  4
303  5
304  2
305  2
306  1
307  2
308  3
309  2
310  1
311  2
312  0
313  4
314  4
315  1
316  1
317  2
318  3
319  6
320  4
321  9
322  0
323  4
324  4
325  1
326  1
327  6
328  2
329  6
330  9
331  1
332  6
333  3
334  2
335  2
336  2
337  3
338  5
339  3
340  4
341  4
342  2
343  2
344  5
345  3
346  5
347  0
348  4
349  5
350  5
351  4
352  4
353  5
354  4
355  2
356  3
357  6
358  2
359  5
360  7
361  3
362  5
363  3
364  4
365  1
366  2
367  2
368  5
369  1
370  2
371  3
372  1
373  4
374  1
375  5
376  3
377  2
378  4
379  2
380  1
381  5
382  3
383  1
384  2
385  8
386  3
387  1
388  2
389  5
390  3
391  8
392  3
393  5
394  4
395  4
396  2
397  4
398  3
399  5
400  4
401  2
402  4
403  5
404  3
405  3
406  5
407  4
408  4
409  3
410  3
411  5
412  2
413  5
414  2
415  4
416  0
417  3
418  3
419  5
420  3
421  2
422  5
423  1
424  7
425  3
426  4
427  1
428  3
429  2
430  5
431  4
432  5
433  5
434  3
435  5
436  3
437  4
438  1
439  4
440  3
441  2
442  2
443  3
444  3
445  2
446  5
447  1
448  5
449  2
450  1
451  3
452  2
453  4
454  1
455  2
456  3
457  4
458  4
459  3
460  3
461  3
462  8
463  3
464  6
465  3
466  4
467  4
468  1
469  4
470  2
471  2
472  6
473  3
474  4
475  3
476  5
477  3
478  8
479  3
480  3
481  4
482  3
483  3
484  3
485  5
486  3
487  3
488  3
489  1
490  1
491  3
492  3
493  6
494  3
495  5
496  6
497  2
498  2
499  5
500  3
501  1
502  2
503  3
504  6
505  3
506  3
507  3
508  2
509  7
510  4
511  5
512  5
513  2
514  6
515  4
516  5
517  1
518  4
519  2
520  2
521  6
522  5
523  6
524  7
525  2
526  3
527  1
528  4
529  2
530  1
531  2
532  2
533  1
534  1
535  1
536  3
537  4
538  4
539  4
540  6
541  1
542  5
543  4
544  5
545  1
546  5
547  2
548  5
549  1
550  2
551  3
552  4
553  5
554  1
555  6
556  2
557  0
558  1
559  7
560  3
561  3
562  2
563  6
564  1
565  2
566  2
567  2
568  6
569  2
570  1
571  4
572  6
573  6
574  6
575  5
576  1
577  7
578  2
579  1
580  1
581  6
582  1
583  4
584  3
585  2
586  4
587  7
588  4
589  5
590  2
591  4
592  2
593  3
594  5
595  2
596  6
597  3
598  1
599  2
600  5
601  4
602  0
603  4
604  1
605  2
606  3
607  4
608  2
609  3
610  4
611  5
612  1
613  8
614  3
615  4
616  2
617  7
618  2
619  4
620  2
621  5
622  2
623  3
624  4
625  1
626  6
627  2
628  2
629  1
630  2
631  2
632  2
633  6
634  4
635  6
636  3
637  5
638  4
639  3
640  7
641  4
642  0
643  5
644  1
645  7
646  5
647  6
648  5
649  3
650  4
651  4
652  2
653  2
654  2
655  6
656  3
657  5
658  4
659  2
660  6
661  3
662  3
663  3
664  7
665  2
666  3
667  4
668  6
669  2
670  3
671  4
672  3
673  0
674  1
675  11
676  4
677  4
678  5
679  5
680  1
681  3
682  3
683  2
684  4
685  6
686  5
687  5
688  4
689  2
690  1
691  2
692  6
693  4
694  4
695  4
696  2
697  6
698  5
699  4
700  7
701  3
702  5
703  6
704  3
705  4
706  4
707  4
708  3
709  4
710  3
711  4
712  5
713  5
714  2
715  4
716  1
717  8
718  7
719  1
720  7
721  3
722  5
723  2
724  7
725  1
726  3
727  3
728  2
729  2
730  3
731  2
732  0
733  4
734  7
735  4
736  2
737  2
738  4
739  1
740  2
741  8
742  4
743  2
744  6
745  5
746  1
747  3
748  6
749  5
750  3
751  4
752  1
753  6
754  1
755  3
756  7
757  4
758  1
759  3
760  7
761  4
762  3
763  2
764  0
765  3
766  1
767  3
768  4
769  4
770  3
771  3
772  4
773  3
774  4
775  4
776  4
777  8
778  4
779  5
780  3
781  4
782  7
783  2
784  4
785  0
786  2
787  5
788  4
789  3
790  2
791  2
792  2
793  3
794  4
795  7
796  4
797  2
798  5
799  4
800  2
801  2
802  5
803  1
804  3
805  2
806  6
807  3
808  3
809  3
810  0
811  8
812  5
813  3
814  5
815  3
816  5
817  0
818  1
819  1
820  4
821  4
822  4
823  3
824  3
825  2
826  4
827  3
828  6
829  3
830  5
831  6
832  4
833  6
834  5
835  2
836  3
837  6
838  1
839  2
840  2
841  3
842  3
843  6
844  3
845  1
846  5
847  4
848  2
849  6
850  3
851  5
852  3
853  5
854  3
855  2
856  5
857  3
858  4
859  2
860  3
861  4
862  3
863  4
864  3
865  3
866  5
867  4
868  4
869  6
870  4
871  2
872  2
873  2
874  8
875  1
876  3
877  9
878  4
879  1
880  7
881  2
882  6
883  1
884  4
885  2
886  2
887  1
888  3
889  3
890  4
891  2
892  5
893  2
894  4
895  3
896  8
897  3
898  2
899  5
900  5
901  3
902  1
903  2
904  1
905  4
906  1
907  4
908  2
909  1
910  4
911  5
912  6
913  4
914  4
915  1
916  8
917  2
918  1
919  6
920  0
921  4
922  3
923  3
924  4
925  4
926  6
927  4
928  5
929  3
930  1
931  5
932  4
933  1
934  7
935  5
936  5
937  3
938  3
939  5
940  4
941  6
942  2
943  5
944  3
945  4
946  1
947  3
948  2
949  2
950  1
951  2
952  5
953  1
954  0
955  3
956  1
957  1
958  8
959  2
960  4
961  2
962  1
963  3
964  1
965  1
966  3
967  3
968  2
969  3
970  9
971  2
972  5
973  4
974  3
975  3
976  2
977  1
978  2
979  6
980  2
981  6
982  3
983  3
984  7
985  3
986  6
987  3
988  1
989  2
990  3
991  5
992  5
993  3
994  5
995  2
996  5
997  2
998  3
999  3
1000  8
1001  3
1002  3
1003  3
1004  2
1005  5
1006  4
1007  1
1008  0
1009  8
1010  4
1011  5
1012  2
1013  3
1014  4
1015  5
1016  4
1017  1
1018  4
1019  1
1020  4
1021  2
1022  7
1023  2
1024  7
1025  3
1026  4
1027  1
1028  2
1029  1
1030  2
1031  3
1032  0
1033  5
1034  5
1035  6
1036  4
1037  1
1038  3
1039  3
1040  3
1041  1
1042  3
1043  5
1044  2
1045  3
1046  2
1047  6
1048  5
1049  0
1050  5
1051  4
1052  2
1053  3
1054  3
1055  6
1056  2
1057  3
1058  0
1059  1
1060  3
1061  3
1062  1
1063  1
1064  3
1065  4
1066  0
1067  3
1068  3
1069  6
1070  3
1071  4
1072  4
1073  1
1074  4
1075  2
1076  6
1077  3
1078  4
1079  6
1080  2
1081  3
1082  2
1083  5
1084  7
1085  5
1086  3
1087  3
1088  1
1089  1
1090  3
1091  3
1092  4
1093  3
1094  5
1095  3
1096  4
1097  5
1098  3
1099  2
1100  2
1101  3
1102  3
1103  4
1104  1
1105  3
1106  5
1107  3
1108  5
1109  4
1110  4
1111  6
1112  3
1113  7
1114  7
1115  1
1116  2
1117  1
1118  3
1119  2
1120  4
1121  2
1122  5
1123  1
1124  2
1125  0
1126  3
1127  2
1128  3
1129  5
1130  4
1131  4
1132  2
1133  4
1134  4
1135  5
1136  3
1137  1
1138  2
1139  2
1140  2
1141  1
1142  4
1143  0
1144  4
1145  2
1146  2
1147  4
1148  4
1149  5
1150  2
1151  3
1152  3
1153  1
1154  3
1155  6
1156  5
1157  5
1158  3
1159  6
1160  1
1161  6
1162  3
1163  4
1164  5
1165  4
1166  6
1167  0
1168  1
1169  3
1170  2
1171  3
1172  3
1173  2
1174  1
1175  4
1176  2
1177  1
1178  3
1179  6
1180  4
1181  3
1182  6
1183  5
1184  2
1185  2
1186  3
1187  2
1188  3
1189  4
1190  2
1191  5
1192  3
1193  2
1194  4
1195  2
1196  4
1197  5
1198  2
1199  2
1200  3
1201  2
1202  6
1203  1
1204  5
1205  3
1206  3
1207  0
1208  3
1209  3
1210  3
1211  2
1212  2
1213  5
1214  1
1215  3
1216  1
1217  4
1218  4
1219  2
1220  2
1221  2
1222  3
1223  2
1224  1
1225  2
1226  2
1227  4
1228  2
1229  0
1230  2
1231  2
1232  4
1233  2
1234  4
1235  4
1236  3
1237  1
1238  0
1239  2
1240  2
1241  5
1242  2
1243  6
1244  3
1245  1
1246  2
1247  1
1248  3
1249  3
1250  2
1251  4
1252  2
1253  3
1254  1
1255  5
1256  3
1257  2
1258  5
1259  4
1260  1
1261  3
1262  5
1263  3
1264  6
1265  3
1266  5
1267  3
1268  3
1269  3
1270  2
1271  1
1272  4
1273  5
1274  4
1275  3
1276  0
1277  2
1278  3
1279  4
1280  3
1281  2
1282  3
1283  3
1284  3
1285  4
1286  2
1287  3
1288  3
1289  3
1290  0
1291  6
1292  2
1293  3
1294  4
1295  8
1296  3
1297  3
1298  6
1299  4
1300  7
1301  3
1302  5
1303  2
1304  2
1305  2
1306  1
1307  2
1308  1
1309  3
1310  2
1311  4
1312  1
1313  2
1314  8
1315  3
1316  2
1317  2
1318  1
1319  5
1320  4
1321  4
1322  1
1323  3
1324  5
1325  4
1326  3
1327  3
1328  0
1329  2
1330  1
1331  1
1332  3
1333  3
1334  7
1335  4
1336  2
1337  2
1338  2
1339  3
1340  4
1341  2
1342  3
1343  3
1344  2
1345  4
1346  7
1347  5
1348  4
1349  5
1350  4
1351  4
1352  5
1353  2
1354  8
1355  5
1356  4
1357  0
1358  3
1359  6
1360  4
1361  2
1362  4
1363  3
1364  1
1365  3
1366  4
1367  5
1368  3
1369  3
1370  3
1371  3
1372  3
1373  1
1374  5
1375  1
1376  5
1377  1
1378  5
1379  7
1380  4
1381  3
1382  3
1383  3
1384  4
1385  3
1386  3
1387  3
1388  1
1389  3
1390  5
1391  2
1392  3
1393  5
1394  1
1395  4
1396  5
1397  3
1398  2
1399  2
1400  1
1401  5
1402  2
1403  2
1404  6
1405  4
1406  2
1407  4
1408  5
1409  4
1410  2
1411  6
1412  2
1413  3
1414  1
1415  4
1416  0
1417  3
1418  1
1419  3
1420  1
1421  1
1422  5
1423  6
1424  0
1425  5
1426  3
1427  5
1428  1
1429  1
1430  4
1431  4
1432  1
1433  1
1434  4
1435  5
1436  1
1437  4
1438  3
1439  3
1440  1
1441  4
1442  5
1443  2
1444  3
1445  2
1446  4
1447  4
1448  0
1449  3
1450  2
1451  6
1452  3
1453  0
1454  4
1455  1
1456  5
1457  3
1458  2
1459  2
1460  4
1461  5
1462  4
1463  3
1464  3
1465  4
1466  7
1467  7
1468  0
1469  3
1470  2
1471  4
1472  2
1473  5
1474  9
1475  1
1476  4
1477  4
1478  6
1479  2
1480  1
1481  4
1482  1
1483  2
1484  4
1485  2
1486  1
1487  1
1488  3
1489  3
1490  1
1491  3
1492  3
1493  2
1494  3
1495  9
1496  8
1497  3
1498  5
1499  5
1500  1
1501  2
1502  5
1503  6
1504  1
1505  2
1506  2
1507  2
1508  3
1509  5
1510  8
1511  5
1512  4
1513  5
1514  0
1515  4
1516  1
1517  3
1518  7
1519  0
1520  5
1521  8
1522  1
1523  0
1524  7
1525  4
1526  3
1527  6
1528  7
1529  4
1530  3
1531  2
1532  10
1533  6
1534  3
1535  3
1536  2
1537  3
1538  4
1539  2
1540  3
1541  2
1542  5
1543  0
1544  4
1545  0
1546  5
1547  4
1548  4
1549  2
1550  3
1551  2
1552  5
1553  4
1554  3
1555  7
1556  1
1557  4
1558  2
1559  1
1560  6
1561  1
1562  1
1563  2
1564  2
1565  3
1566  0
1567  1
1568  8
1569  3
1570  1
1571  2
1572  4
1573  3
1574  3
1575  4
1576  7
1577  7
1578  0
1579  4
1580  1
1581  1
1582  2
1583  2
1584  4
1585  5
1586  1
1587  2
1588  5
1589  3
1590  2
1591  4
1592  8
1593  6
1594  5
1595  2
1596  5
1597  2
1598  3
1599  3
1600  1
1601  3
1602  5
1603  3
1604  1
1605  3
1606  1
1607  3
1608  1
1609  2
1610  3
1611  3
1612  5
1613  2
1614  3
1615  1
1616  4
1617  8
1618  1
1619  6
1620  1
1621  3
1622  4
1623  7
1624  5
1625  3
1626  4
1627  4
1628  0
1629  4
1630  5
1631  4
1632  4
1633  2
1634  4
1635  4
1636  3
1637  2
1638  6
1639  7
1640  4
1641  5
1642  2
1643  3
1644  5
1645  8
1646  2
1647  1
1648  2
1649  2
1650  3
1651  3
1652  1
1653  4
1654  2
1655  2
1656  3
1657  2
1658  2
1659  3
1660  4
1661  3
1662  1
1663  3
1664  4
1665  4
1666  6
1667  3
1668  1
1669  5
1670  4
1671  3
1672  3
1673  0
1674  2
1675  1
1676  4
1677  8
1678  2
1679  1
1680  1
1681  4
1682  1
1683  3
1684  2
1685  6
1686  1
1687  3
1688  3
1689  5
1690  3
1691  4
1692  3
1693  5
1694  2
1695  1
1696  3
1697  2
1698  1
1699  3
1700  3
1701  1
1702  1
1703  8
1704  4
1705  3
1706  4
1707  5
1708  5
1709  1
1710  1
1711  8
1712  1
1713  5
1714  2
1715  0
1716  4
1717  2
1718  4
1719  1
1720  4
1721  4
1722  1
1723  5
1724  2
1725  3
1726  2
1727  7
1728  2
1729  2
1730  5
1731  4
1732  0
1733  1
1734  0
1735  5
1736  2
1737  4
1738  3
1739  3
1740  4
1741  4
1742  3
1743  5
1744  4
1745  4
1746  4
1747  6
1748  4
1749  1
1750  4
1751  5
1752  6
1753  2
1754  1
1755  2
1756  6
1757  2
1758  2
1759  1
1760  2
1761  3
1762  4
1763  3
1764  3
1765  3
1766  1
1767  0
1768  2
1769  5
1770  5
1771  4
1772  3
1773  4
1774  6
1775  1
1776  4
1777  5
1778  4
1779  1
1780  4
1781  3
1782  3
1783  2
1784  5
1785  5
1786  3
1787  3
1788  2
1789  2
1790  1
1791  5
1792  3
1793  1
1794  3
1795  6
1796  3
1797  2
1798  6
1799  4
1800  1
1801  4
1802  3
1803  1
1804  6
1805  2
1806  2
1807  3
1808  2
1809  3
1810  1
1811  5
1812  2
1813  1
1814  4
1815  2
1816  6
1817  3
1818  2
1819  6
1820  4
1821  4
1822  1
1823  4
1824  3
1825  1
1826  4
1827  3
1828  4
1829  1
1830  5
1831  4
1832  3
1833  1
1834  1
1835  3
1836  2
1837  2
1838  5
1839  1
1840  4
1841  3
1842  1
1843  4
1844  2
1845  3
1846  5
1847  3
1848  2
1849  1
1850  3
1851  5
1852  3
1853  2
1854  3
1855  5
1856  6
1857  1
1858  2
1859  2
1860  3
1861  5
1862  2
1863  3
1864  4
1865  1
1866  2
1867  2
1868  6
1869  5
1870  6
1871  1
1872  2
1873  3
1874  6
1875  1
1876  4
1877  3
1878  2
1879  4
1880  2
1881  2
1882  2
1883  3
1884  2
1885  3
1886  3
1887  2
1888  1
1889  4
1890  3
1891  5
1892  2
1893  5
1894  3
1895  5
1896  7
1897  4
1898  2
1899  2
1900  2
1901  4
1902  0
1903  3
1904  3
1905  1
1906  0
1907  3
1908  3
1909  2
1910  2
1911  9
1912  4
1913  5
1914  1
1915  2
1916  3
1917  3
1918  4
1919  3
1920  5
1921  4
1922  1
1923  2
1924  3
1925  1
1926  2
1927  0
1928  6
1929  5
1930  2
1931  2
1932  2
1933  3
1934  0
1935  7
1936  2
1937  2
1938  2
1939  6
1940  3
1941  6
1942  3
1943  6
1944  5
1945  1
1946  2
1947  5
1948  8
1949  0
1950  4
1951  3
1952  2
1953  3
1954  6
1955  3
1956  2
1957  2
1958  3
1959  3
1960  3
1961  2
1962  7
1963  6
1964  2
1965  4
1966  2
1967  4
1968  6
1969  3
1970  6
1971  2
1972  0
1973  1
1974  2
1975  3
1976  5
1977  2
1978  6
1979  2
1980  3
1981  1
1982  4
1983  4
1984  3
1985  1
1986  1
1987  5
1988  2
1989  1
1990  3
1991  3
1992  4
1993  2
1994  3
1995  4
1996  4
1997  4
1998  4
1999  5
2000  2
2001  3
2002  3
2003  5
2004  6
2005  1
2006  3
2007  3
2008  2
2009  2
2010  3
2011  5
2012  5
2013  3
2014  5
2015  1
2016  3
2017  2
2018  6
2019  3
2020  2
2021  8
2022  4
2023  3
2024  4
2025  3
2026  2
2027  2
2028  2
2029  2
2030  4
2031  2
2032  2
2033  0
2034  4
2035  2
2036  3
2037  2
2038  1
2039  4
2040  4
2041  1
2042  3
2043  4
2044  3
2045  5
2046  4
2047  4
2048  5
2049  4
2050  8
2051  1
2052  1
2053  5
2054  4
2055  4
2056  5
2057  2
2058  4
2059  1
2060  4
2061  5
2062  0
2063  4
2064  1
2065  2
2066  2
2067  3
2068  3
2069  2
2070  2
2071  4
2072  2
2073  4
2074  3
2075  8
2076  7
2077  1
2078  3
2079  3
2080  5
2081  2
2082  2
2083  4
2084  2
2085  1
2086  0
2087  3
2088  0
2089  3
2090  5
2091  4
2092  3
2093  3
2094  2
2095  3
2096  2
2097  3
2098  2
2099  1
2100  6
2101  3
2102  2
2103  4
2104  5
2105  0
2106  3
2107  1
2108  6
2109  3
2110  4
2111  3
2112  1
2113  3
2114  3
2115  2
2116  5
2117  4
2118  2
2119  2
2120  0
2121  5
2122  3
2123  1
2124  4
2125  5
2126  2
2127  1
2128  3
2129  3
2130  2
2131  1
2132  0
2133  3
2134  4
2135  2
2136  4
2137  2
2138  6
2139  2
2140  2
2141  2
2142  3
2143  2
2144  4
2145  4
2146  4
2147  3
2148  8
2149  3
2150  0
2151  0
2152  3
2153  3
2154  5
2155  3
2156  2
2157  2
2158  3
2159  1
2160  8
2161  6
2162  2
2163  3
2164  2
2165  6
2166  5
2167  4
2168  2
2169  4
2170  3
2171  2
2172  1
2173  3
2174  4
2175  5
2176  1
2177  3
2178  3
2179  2
2180  2
2181  2
2182  5
2183  3
2184  6
2185  0
2186  4
2187  3
2188  5
2189  4
2190  5
2191  6
2192  3
2193  3
2194  4
2195  2
2196  5
2197  2
2198  4
2199  2
2200  3
2201  2
2202  2
2203  1
2204  5
2205  1
2206  6
2207  3
2208  5
2209  3
2210  2
2211  4
2212  2
2213  3
2214  4
2215  2
2216  5
2217  0
2218  5
2219  3
2220  4
2221  2
2222  6
2223  0
2224  7
2225  2
2226  3
2227  4
2228  3
2229  5
2230  6
2231  3
2232  4
2233  3
2234  1
2235  3
2236  3
2237  7
2238  2
2239  0
2240  4
2241  6
2242  4
2243  5
2244  2
2245  4
2246  1
2247  6
2248  3
2249  6
2250  5
2251  4
2252  2
2253  7
2254  1
2255  2
2256  9
2257  2
2258  2
2259  1
2260  2
2261  3
2262  5
2263  2
2264  9
2265  4
2266  5
2267  5
2268  4
2269  5
2270  5
2271  7
2272  5
2273  4
2274  3
2275  3
2276  1
2277  3
2278  2
2279  2
2280  3
2281  2
2282  2
2283  3
2284  1
2285  4
2286  3
2287  3
2288  7
2289  5
2290  2
2291  4
2292  3
2293  6
2294  1
2295  5
2296  3
2297  5
2298  4
2299  2
2300  6
2301  3
2302  2
2303  3
2304  2
2305  3
2306  4
2307  6
2308  3
2309  2
2310  4
2311  3
2312  9
2313  3
2314  5
2315  1
2316  3
2317  1
2318  2
2319  3
2320  1
2321  3
2322  3
2323  4
2324  0
2325  1
2326  2
2327  5
2328  7
2329  4
2330  0
2331  1
2332  6
2333  2
2334  3
2335  3
2336  3
2337  2
2338  1
2339  5
2340  1
2341  6
2342  3
2343  2
2344  3
2345  4
2346  3
2347  3
2348  3
2349  2
2350  4
2351  4
2352  4
2353  2
2354  2
2355  7
2356  6
2357  4
2358  4
2359  3
2360  4
2361  0
2362  3
2363  1
2364  8
2365  4
2366  1
2367  1
2368  4
2369  4
2370  2
2371  5
2372  2
2373  6
2374  6
2375  1
2376  4
2377  5
2378  2
2379  4
2380  5
2381  1
2382  4
2383  1
2384  2
2385  5
2386  4
2387  1
2388  3
2389  5
2390  3
2391  4
2392  1
2393  6
2394  3
2395  2
2396  0
2397  6
2398  1
2399  2
2400  3
2401  1
2402  3
2403  4
2404  3
2405  3
2406  2
2407  2
2408  4
2409  3
2410  2
2411  3
2412  8
2413  5
2414  4
2415  5
2416  5
2417  0
2418  2
2419  3
2420  3
2421  1
2422  3
2423  3
2424  5
2425  3
2426  3
2427  4
2428  3
2429  7
2430  5
2431  0
2432  2
2433  4
2434  4
2435  4
2436  6
2437  6
2438  2
2439  3
2440  1
2441  2
2442  1
2443  4
2444  7
2445  0
2446  7
2447  2
2448  4
2449  5
2450  5
2451  5
2452  1
2453  4
2454  1
2455  2
2456  6
2457  8
2458  3
2459  3
2460  1
2461  8
2462  3
2463  3
2464  2
2465  1
2466  3
2467  2
2468  2
2469  2
2470  4
2471  4
2472  7
2473  2
2474  1
2475  0
2476  4
2477  0
2478  4
2479  3
2480  0
2481  3
2482  2
2483  4
2484  3
2485  6
2486  5
2487  4
2488  6
2489  3
2490  9
2491  3
2492  4
2493  1
2494  5
2495  3
2496  5
2497  3
2498  5
2499  1
2500  9
2501  3
2502  0
2503  2
2504  3
2505  4
2506  1
2507  5
2508  5
2509  4
2510  2
2511  3
2512  2
2513  2
2514  5
2515  4
2516  5
2517  1
2518  3
2519  4
2520  4
2521  1
2522  0
2523  2
2524  1
2525  5
2526  0
2527  6
2528  4
2529  4
2530  2
2531  5
2532  2
2533  3
2534  1
2535  3
2536  3
2537  4
2538  3
2539  4
2540  2
2541  5
2542  3
2543  0
2544  3
2545  4
2546  2
2547  1
2548  3
2549  1
2550  2
2551  4
2552  3
2553  3
2554  1
2555  2
2556  2
2557  4
2558  0
2559  5
2560  1
2561  0
2562  3
2563  7
2564  6
2565  0
2566  6
2567  3
2568  3
2569  4
2570  2
2571  3
2572  2
2573  4
2574  3
2575  5
2576  3
2577  0
2578  5
2579  5
2580  5
2581  3
2582  5
2583  2
2584  5
2585  3
2586  4
2587  2
2588  4
2589  2
2590  4
2591  2
2592  3
2593  3
2594  5
2595  7
2596  7
2597  3
2598  4
2599  4
2600  2
2601  4
2602  1
2603  2
2604  4
2605  3
2606  5
2607  3
2608  2
2609  1
2610  2
2611  3
2612  3
2613  4
2614  2
2615  4
2616  4
2617  6
2618  4
2619  5
2620  3
2621  2
2622  3
2623  2
2624  2
2625  2
2626  5
2627  5
2628  4
2629  5
2630  2
2631  2
2632  4
2633  2
2634  3
2635  6
2636  5
2637  4
2638  6
2639  3
2640  1
2641  0
2642  3
2643  4
2644  4
2645  4
2646  4
2647  4
2648  4
2649  6
2650  1
2651  5
2652  6
2653  5
2654  3
2655  3
2656  5
2657  3
2658  4
2659  2
2660  3
2661  5
2662  4
2663  2
2664  6
2665  5
2666  3
2667  1
2668  7
2669  2
2670  3
2671  1
2672  3
2673  6
2674  2
2675  0
2676  1
2677  4
2678  4
2679  4
2680  2
2681  1
2682  3
2683  2
2684  1
2685  4
2686  1
2687  3
2688  5
2689  4
2690  1
2691  3
2692  1
2693  4
2694  2
2695  1
2696  3
2697  1
2698  7
2699  3
2700  2
2701  4
2702  3
2703  4
2704  7
2705  3
2706  0
2707  0
2708  3
2709  5
2710  0
2711  1
2712  6
2713  1
2714  1
2715  5
2716  7
2717  6
2718  4
2719  6
2720  2
2721  4
2722  0
2723  1
2724  5
2725  2
2726  2
2727  4
2728  4
2729  4
2730  6
2731  2
2732  2
2733  5
2734  2
2735  2
2736  4
2737  1
2738  3
2739  3
2740  5
2741  0
2742  1
2743  1
2744  0
2745  1
2746  5
2747  1
2748  1
2749  3
2750  1
2751  4
2752  1
2753  0
2754  2
2755  4
2756  4
2757  4
2758  0
2759  3
2760  5
2761  4
2762  8
2763  5
2764  2
2765  9
2766  3
2767  4
2768  2
2769  4
2770  1
2771  2
2772  1
2773  3
2774  4
2775  4
2776  3
2777  2
2778  7
2779  3
2780  0
2781  3
2782  4
2783  4
2784  3
2785  2
2786  3
2787  2
2788  3
2789  3
2790  2
2791  6
2792  4
2793  3
2794  1
2795  0
2796  2
2797  3
2798  5
2799  2
2800  2
2801  3
2802  1
2803  6
2804  2
2805  4
2806  6
2807  6
2808  5
2809  2
2810  4
2811  7
2812  1
2813  3
2814  1
2815  5
2816  2
2817  5
2818  4
2819  2
2820  9
2821  1
2822  4
2823  4
2824  6
2825  2
2826  2
2827  5
2828  8
2829  1
2830  6
2831  5
2832  4
2833  3
2834  5
2835  1
2836  2
2837  1
2838  1
2839  2
2840  1
2841  3
2842  5
2843  2
2844  3
2845  2
2846  1
2847  2
2848  0
2849  0
2850  4
2851  1
2852  2
2853  5
2854  4
2855  3
2856  4
2857  5
2858  3
2859  5
2860  6
2861  6
2862  3
2863  3
2864  3
2865  5
2866  0
2867  6
2868  7
2869  4
2870  2
2871  6
2872  6
2873  2
2874  1
2875  3
2876  2
2877  4
2878  2
2879  4
2880  6
2881  5
2882  5
2883  2
2884  5
2885  2
2886  7
2887  5
2888  2
2889  2
2890  1
2891  2
2892  5
2893  4
2894  5
2895  6
2896  3
2897  2
2898  5
2899  1
2900  3
2901  2
2902  2
2903  3
2904  1
2905  3
2906  6
2907  4
2908  5
2909  4
2910  2
2911  1
2912  3
2913  2
2914  5
2915  6
2916  5
2917  3
2918  7
2919  2
2920  3
2921  5
2922  2
2923  3
2924  2
2925  4
2926  3
2927  3
2928  3
2929  4
2930  6
2931  3
2932  5
2933  7
2934  2
2935  0
2936  2
2937  4
2938  5
2939  4
2940  2
2941  2
2942  7
2943  2
2944  4
2945  4
2946  3
2947  0
2948  6
2949  2
2950  3
2951  2
2952  3
2953  4
2954  7
2955  1
2956  2
2957  4
2958  3
2959  4
2960  2
2961  2
2962  8
2963  2
2964  9
2965  4
2966  2
2967  0
2968  8
2969  1
2970  3
2971  4
2972  8
2973  1
2974  4
2975  4
2976  1
2977  5
2978  1
2979  2
2980  5
2981  2
2982  3
2983  6
2984  2
2985  5
2986  3
2987  4
2988  4
2989  4
2990  3
2991  3
2992  4
2993  2
2994  6
2995  2
2996  4
2997  5
2998  4
2999  4
3000  4
3001  4
3002  2
3003  2
3004  5
3005  3
3006  5
3007  5
3008  5
3009  1
3010  6
3011  3
3012  5
3013  1
3014  2
3015  3
3016  6
3017  2
3018  3
3019  1
3020  3
3021  6
3022  3
3023  2
3024  3
3025  6
3026  1
3027  2
3028  3
3029  2
3030  5
3031  1
3032  1
3033  5
3034  0
3035  3
3036  3
3037  8
3038  4
3039  2
3040  5
3041  3
3042  6
3043  3
3044  1
3045  4
3046  4
3047  2
3048  9
3049  9
3050  0
3051  11
3052  7
3053  3
3054  4
3055  2
3056  2
3057  2
3058  1
3059  0
3060  5
3061  3
3062  8
3063  1
3064  4
3065  2
3066  1
3067  3
3068  1
3069  3
3070  7
3071  5
3072  8
3073  3
3074  7
3075  6
3076  7
3077  3
3078  3
3079  3
3080  5
3081  4
3082  3
3083  3
3084  5
3085  2
3086  4
3087  4
3088  2
3089  3
3090  3
3091  4
3092  4
3093  2
3094  3
3095  4
3096  3
3097  6
3098  4
3099  5
3100  6
3101  3
3102  3
3103  6
3104  2
3105  7
3106  3
3107  3
3108  4
3109  8
3110  7
3111  3
3112  4
3113  6
3114  6
3115  1
3116  1
3117  7
3118  4
3119  1
3120  5
3121  6
3122  4
3123  5
3124  8
3125  4
3126  5
3127  3
3128  1
3129  2
3130  1
3131  3
3132  6
3133  6
3134  2
3135  4
3136  3
3137  6
3138  3
3139  5
3140  5
3141  3
3142  4
3143  3
3144  4
3145  5
3146  4
3147  4
3148  5
3149  4
3150  2
3151  7
3152  5
3153  4
3154  6
3155  6
3156  4
3157  6
3158  5
3159  6
3160  9
3161  5
3162  5
3163  5
3164  10
3165  4
3166  5
3167  2
3168  5
3169  6
3170  6
3171  7
3172  5
3173  6
3174  6
3175  11
3176  5
3177  4
3178  5
3179  6
3180  8
3181  4
3182  4
3183  5
3184  1
3185  5
3186  6
3187  2
3188  5
3189  8
3190  3
3191  4
3192  8
3193  4
3194  3
3195  8
3196  2
3197  7
3198  7
3199  1
3200  6
3201  3
3202  8
3203  4
3204  7
3205  6
3206  7
3207  2
3208  3
3209  3
3210  8
3211  10
3212  3
3213  4
3214  5
3215  7
3216  8
3217  6
3218  2
3219  7
3220  4
3221  8
3222  3
3223  4
3224  6
3225  4
3226  8
3227  8
3228  3
3229  5
3230  7
3231  2
3232  6
3233  8
3234  6
3235  6
3236  1
3237  4
3238  6
3239  4
3240  6
3241  6
3242  4
3243  3
3244  5
3245  5
3246  8
3247  6
3248  2
3249  3
3250  5
3251  4
3252  5
3253  4
3254  4
3255  7
3256  5
3257  8
3258  8
3259  7
3260  2
3261  8
3262  5
3263  5
3264  5
3265  3
3266  11
3267  4
3268  7
3269  6
3270  9
3271  5
3272  3
3273  8
3274  5
3275  11
3276  9
3277  6
3278  4
3279  6
3280  5
3281  8
3282  3
3283  6
3284  11
3285  9
3286  9
3287  7
3288  12
3289  5
3290  6
3291  9
3292  5
3293  5
3294  3
3295  7
3296  11
3297  5
3298  6
3299  9
3300  8
3301  10
3302  6
3303  10
3304  6
3305  10
3306  12
3307  11
3308  6
3309  12
3310  6
3311  11
3312  11
3313  9
3314  9
3315  7
3316  17
3317  8
3318  10
3319  12
3320  12
3321  7
3322  12
3323  4
3324  5
3325  10
3326  13
3327  7
3328  6
3329  10
3330  14
3331  10
3332  16
3333  6
3334  10
3335  10
3336  11
3337  16
3338  9
3339  8
3340  10
3341  11
3342  16
3343  7
3344  15
3345  18
3346  12
3347  10
3348  27
3349  11
3350  15
3351  12
3352  16
3353  8
3354  14
3355  16
3356  17
3357  13
3358  15
3359  12
3360  18
3361  12
3362  10
3363  11
3364  17
3365  17
3366  10
3367  18
3368  8
3369  22
3370  10
3371  14
3372  19
3373  23
3374  15
3375  18
3376  15
3377  15
3378  17
3379  15
3380  18
3381  10
3382  15
3383  15
3384  10
3385  15
3386  11
3387  14
3388  15
3389  13
3390  23
3391  20
3392  15
3393  19
3394  19
3395  17
3396  24
3397  21
3398  11
3399  25
3400  13
3401  14
3402  14
3403  22
3404  15
3405  16
3406  20
3407  16
3408  13
3409  20
3410  13
3411  18
3412  19
3413  18
3414  16
3415  9
3416  15
3417  22
3418  16
3419  16
3420  12
3421  13
3422  13
3423  19
3424  12
3425  19
3426  16
3427  14
3428  25
3429  19
3430  23
3431  15
3432  20
3433  24
3434  21
3435  20
3436  17
3437  22
3438  20
3439  23
3440  27
3441  26
3442  20
3443  15
3444  25
3445  23
3446  21
3447  17
3448  21
3449  16
3450  25
3451  11
3452  24
3453  19
3454  10
3455  20
3456  21
3457  19
3458  24
3459  22
3460  14
3461  21
3462  16
3463  15
3464  19
3465  20
3466  21
3467  30
3468  24
3469  20
3470  25
3471  20
3472  20
3473  20
3474  28
3475  16
3476  15
3477  18
3478  23
3479  20
3480  17
3481  18
3482  12
3483  26
3484  16
3485  23
3486  21
3487  17
3488  16
3489  15
3490  7
3491  21
3492  9
3493  17
3494  18
3495  25
3496  14
3497  15
3498  14
3499  22
3500  12
3501  13
3502  14
3503  14
3504  16
3505  17
3506  11
3507  10
3508  12
3509  19
3510  14
3511  21
3512  17
3513  18
3514  18
3515  13
3516  18
3517  11
3518  12
3519  18
3520  15
3521  15
3522  13
3523  23
3524  15
3525  23
3526  16
3527  14
3528  10
3529  17
3530  15
3531  17
3532  14
3533  16
3534  23
3535  25
3536  7
3537  17
3538  12
3539  11
3540  20
3541  15
3542  29
3543  20
3544  13
3545  16
3546  13
3547  18
3548  25
3549  18
3550  20
3551  23
3552  31
3553  26
3554  13
3555  28
3556  23
3557  24
3558  20
3559  24
3560  32
3561  26
3562  26
3563  26
3564  31
3565  29
3566  29
3567  29
3568  35
3569  35
3570  38
3571  37
3572  49
3573  49
3574  43
3575  73
3576  57
3577  68
3578  62
3579  75
3580  96
3581  81
3582  108
3583  112
3584  102
3585  103
3586  114
3587  109
3588  134
3589  133
3590  151
3591  175
3592  179
3593  177
3594  194
3595  187
3596  200
3597  194
3598  219
3599  210
3600  244
3601  240
3602  273
3603  249
3604  281
3605  266
3606  302
3607  308
3608  346
3609  312
3610  355
3611  325
3612  400
3613  361
3614  380
3615  341
3616  343
3617  367
3618  385
3619  388
3620  392
3621  432
3622  391
3623  437
3624  480
3625  403
3626  430
3627  428
3628  465
3629  462
3630  436
3631  461
3632  443
3633  479
3634  508
3635  427
3636  430
3637  465
3638  451
3639  434
3640  419
3641  447
3642  452
3643  422
3644  431
3645  388
3646  392
3647  404
3648  373
3649  388
3650  344
3651  349
3652  337
3653  341
3654  290
3655  299
3656  318
3657  286
3658  297
3659  300
3660  260
3661  244
3662  244
3663  223
3664  191
3665  200
3666  169
3667  187
3668  197
3669  149
3670  170
3671  162
3672  153
3673  145
3674  140
3675  137
3676  125
3677  130
3678  109
3679  116
3680  101
3681  81
3682  87
3683  76
3684  79
3685  82
3686  74
3687  66
3688  60
3689  50
3690  49
3691  47
3692  54
3693  55
3694  45
3695  52
3696  40
3697  45
3698  43
3699  38
3700  42
3701  37
3702  33
3703  32
3704  34
3705  40
3706  34
3707  40
3708  38
3709  36
3710  55
3711  51
3712  67
3713  64
3714  83
3715  114
3716  118
3717  168
3718  192
3719  216
3720  322
3721  317
3722  457
3723  506
3724  606
3725  714
3726  824
3727  918
3728  1047
3729  1196
3730  1368
3731  1410
3732  1614
3733  1660
3734  1779
3735  1881
3736  1992
3737  2005
3738  2027
3739  2089
3740  2074
3741  2172
3742  2141
3743  2030
3744  1942
3745  1900
3746  1764
3747  1686
3748  1584
3749  1534
3750  1449
3751  1233
3752  1214
3753  1124
3754  1006
3755  1022
3756  813
3757  806
3758  724
3759  656
3760  621
3761  557
3762  520
3763  472
3764  417
3765  380
3766  380
3767  388
3768  340
3769  307
3770  313
3771  264
3772  268
3773  211
3774  242
3775  220
3776  198
3777  174
3778  173
3779  145
3780  144
3781  121
3782  127
3783  109
3784  105
3785  95
3786  84
3787  92
3788  87
3789  71
3790  50
3791  79
3792  60
3793  61
3794  42
3795  52
3796  36
3797  39
3798  32
3799  28
3800  31
3801  27
3802  36
3803  27
3804  11
3805  12
3806  10
3807  12
3808  10
3809  8
3810  14
3811  13
3812  12
3813  6
3814  3
3815  3
3816  7
3817  2
3818  6
3819  8
3820  2
3821  5
3822  1
3823  1
3824  1
3825  3
3826  7
3827  2
3828  0
3829  1
3830  2
3831  7
3832  3
3833  3
3834  4
3835  3
3836  3
3837  3
3838  4
3839  1
3840  0
3841  0
3842  0
3843  0
3844  0
3845  0
3846  0
3847  0
3848  0
3849  0
3850  0
3851  0
3852  0
3853  0
3854  0
3855  0
3856  0
3857  0
3858  0
3859  0
3860  0
3861  0
3862  0
3863  0
3864  0
3865  0
3866  0
3867  0
3868  0
3869  0
3870  0
3871  0
3872  0
3873  0
3874  0
3875  0
3876  0
3877  0
3878  0
3879  0
3880  0
3881  0
3882  0
3883  0
3884  0
3885  0
3886  0
3887  0
3888  0
3889  0
3890  0
3891  0
3892  0
3893  0
3894  0
3895  0
3896  0
3897  0
3898  0
3899  0
3900  0
3901  0
3902  0
3903  0
3904  0
3905  0
3906  0
3907  0
3908  0
3909  0
3910  0
3911  0
3912  0
3913  0
3914  0
3915  0
3916  0
3917  0
3918  0
3919  0
3920  0
3921  0
3922  0
3923  0
3924  0
3925  0
3926  0
3927  0
3928  0
3929  0
3930  0
3931  0
3932  0
3933  0
3934  0
3935  0
3936  0
3937  0
3938  0
3939  0
3940  0
3941  0
3942  0
3943  0
3944  0
3945  0
3946  0
3947  0
3948  0
3949  0
3950  0
3951  0
3952  0
3953  0
3954  0
3955  0
3956  0
3957  0
3958  0
3959  0
3960  0
3961  0
3962  0
3963  0
3964  0
3965  0
3966  0
3967  0
3968  0
3969  0
3970  0
3971  0
3972  0
3973  0
3974  0
3975  0
3976  0
3977  0
3978  0
3979  0
3980  0
3981  0
3982  0
3983  0
3984  0
3985  0
3986  0
3987  0
3988  0
3989  0
3990  0
3991  0
3992  0
3993  0
3994  0
3995  0
3996  0
3997  0
3998  0
3999  0
4000  0
4001  0
4002  0
4003  0
4004  0
4005  0
4006  0
4007  0
4008  0
4009  0
4010  0
4011  0
4012  0
4013  0
4014  0
4015  0
4016  0
4017  0
4018  0
4019  0
4020  0
4021  0
4022  0
4023  0
4024  0
4025  0
4026  0
4027  0
4028  0
4029  0
4030  0
4031  0
4032  0
4033  0
4034  0
4035  0
4036  0
4037  0
4038  0
4039  0
4040  0
4041  0
4042  0
4043  0
4044  0
4045  0
4046  0
4047  0
4048  0
4049  0
4050  0
4051  0
4052  0
4053  0
4054  0
4055  0
4056  0
4057  0
4058  0
4059  0
4060  0
4061  0
4062  0
4063  0
4064  0
4065  0
4066  0
4067  0
4068  0
4069  0
4070  0
4071  0
4072  0
4073  0
4074  0
4075  0
4076  0
4077  0
4078  0
4079  0
4080  0
4081  0
4082  0
4083  0
4084  0
4085  0
4086  0
4087  0
4088  0
4089  0
4090  0
4091  0
4092  0
4093  0
4094  0
4095  0
