0  0
1  0
2  0
3  0
4  0
5  0
6  0
7  0
8  0
9  0
10  0
11  0
12  0
13  0
14  0
15  0
16  0
17  0
18  0
19  0
20  0
21  0
22  0
23  0
24  0
25  0
26  0
27  0
28  0
29  0
30  0
31  0
32  0
33  0
34  0
35  0
36  0
37  0
38  0
39  0
40  0
41  0
42  0
43  0
44  0
45  0
46  0
47  0
48  0
49  0
50  0
51  0
52  0
53  0
54  0
55  0
56  0
57  0
58  0
59  0
60  0
61  0
62  0
63  0
64  0
65  0
66  0
67  0
68  0
69  0
70  0
71  0
72  0
73  0
74  0
75  0
76  0
77  0
78  0
79  0
80  0
81  0
82  0
83  0
84  0
85  0
86  0
87  0
88  0
89  0
90  0
91  0
92  0
93  0
94  0
95  0
96  0
97  0
98  0
99  0
100  0
101  0
102  0
103  0
104  0
105  0
106  0
107  0
108  0
109  0
110  0
111  0
112  0
113  0
114  0
115  0
116  0
117  0
118  0
119  0
120  0
121  0
122  0
123  0
124  0
125  0
126  0
127  0
128  0
129  0
130  0
131  0
132  0
133  0
134  0
135  0
136  0
137  0
138  0
139  0
140  0
141  0
142  0
143  0
144  0
145  0
146  0
147  0
148  0
149  0
150  0
151  0
152  0
153  0
154  0
155  0
156  0
157  0
158  0
159  0
160  0
161  0
162  0
163  0
164  0
165  0
166  0
167  0
168  0
169  0
170  0
171  0
172  0
173  0
174  0
175  0
176  0
177  0
178  0
179  0
180  0
181  0
182  0
183  0
184  0
185  0
186  0
187  0
188  0
189  0
190  0
191  0
192  0
193  0
194  0
195  0
196  0
197  0
198  0
199  0
200  0
201  0
202  0
203  0
204  0
205  0
206  0
207  0
208  0
209  0
210  0
211  0
212  0
213  0
214  0
215  0
216  0
217  0
218  0
219  0
220  0
221  0
222  0
223  0
224  0
225  0
226  0
227  0
228  0
229  0
230  0
231  0
232  0
233  0
234  0
235  0
236  0
237  0
238  0
239  0
240  0
241  0
242  0
243  0
244  0
245  0
246  0
247  0
248  0
249  0
250  0
251  0
252  0
253  0
254  0
255  0
256  0
257  0
258  0
259  0
260  0
261  0
262  0
263  0
264  0
265  0
266  0
267  0
268  0
269  0
270  0
271  0
272  0
273  0
274  0
275  0
276  0
277  0
278  0
279  0
280  0
281  0
282  0
283  0
284  0
285  0
286  0
287  0
288  0
289  0
290  0
291  0
292  0
293  0
294  0
295  0
296  0
297  0
298  0
299  0
300  0
301  0
302  0
303  0
304  0
305  0
306  0
307  0
308  0
309  0
310  0
311  0
312  0
313  0
314  0
315  0
316  0
317  0
318  0
319  0
320  0
321  0
322  0
323  0
324  0
325  0
326  0
327  0
328  0
329  0
330  0
331  0
332  0
333  0
334  0
335  0
336  0
337  0
338  0
339  0
340  0
341  0
342  0
343  0
344  0
345  0
346  0
347  0
348  0
349  0
350  0
351  0
352  0
353  0
354  0
355  0
356  0
357  0
358  0
359  0
360  0
361  0
362  0
363  0
364  0
365  0
366  0
367  0
368  0
369  0
370  0
371  0
372  0
373  0
374  0
375  0
376  0
377  0
378  0
379  0
380  0
381  0
382  0
383  0
384  0
385  0
386  0
387  0
388  0
389  0
390  0
391  0
392  0
393  0
394  0
395  0
396  0
397  0
398  0
399  0
400  0
401  0
402  0
403  0
404  0
405  0
406  0
407  0
408  0
409  0
410  0
411  0
412  0
413  0
414  0
415  0
416  0
417  0
418  0
419  0
420  0
421  0
422  0
423  0
424  0
425  0
426  0
427  0
428  0
429  0
430  0
431  0
432  0
433  0
434  0
435  0
436  0
437  0
438  0
439  0
440  0
441  0
442  0
443  0
444  0
445  0
446  0
447  0
448  0
449  0
450  0
451  0
452  0
453  0
454  0
455  0
456  0
457  0
458  0
459  0
460  0
461  0
462  0
463  0
464  0
465  0
466  0
467  0
468  0
469  0
470  0
471  0
472  0
473  0
474  0
475  0
476  0
477  0
478  0
479  0
480  0
481  0
482  0
483  0
484  0
485  0
486  0
487  0
488  0
489  0
490  0
491  0
492  0
493  0
494  0
495  0
496  0
497  0
498  0
499  0
500  0
501  0
502  0
503  0
504  0
505  0
506  0
507  0
508  0
509  0
510  0
511  0
512  0
513  0
514  0
515  0
516  0
517  0
518  0
519  0
520  0
521  0
522  0
523  0
524  0
525  0
526  0
527  0
528  0
529  0
530  0
531  0
532  0
533  0
534  0
535  0
536  0
537  0
538  0
539  0
540  0
541  0
542  0
543  0
544  0
545  0
546  0
547  0
548  0
549  0
550  0
551  0
552  0
553  0
554  0
555  0
556  0
557  0
558  0
559  0
560  0
561  0
562  0
563  0
564  0
565  0
566  0
567  0
568  0
569  0
570  0
571  0
572  0
573  0
574  0
575  0
576  0
577  0
578  0
579  0
580  0
581  0
582  0
583  0
584  0
585  0
586  0
587  0
588  0
589  0
590  0
591  0
592  0
593  0
594  0
595  0
596  0
597  0
598  0
599  0
600  0
601  0
602  0
603  0
604  0
605  0
606  0
607  0
608  0
609  0
610  0
611  0
612  0
613  0
614  0
615  0
616  0
617  0
618  0
619  0
620  0
621  0
622  0
623  0
624  0
625  0
626  0
627  0
628  0
629  0
630  0
631  0
632  0
633  0
634  0
635  0
636  0
637  0
638  0
639  0
640  0
641  0
642  0
643  0
644  0
645  0
646  0
647  0
648  0
649  0
650  0
651  0
652  0
653  0
654  0
655  0
656  0
657  0
658  0
659  0
660  0
661  0
662  0
663  0
664  0
665  0
666  0
667  0
668  0
669  0
670  0
671  0
672  0
673  0
674  0
675  0
676  0
677  0
678  0
679  0
680  0
681  0
682  0
683  0
684  0
685  0
686  0
687  0
688  0
689  0
690  0
691  0
692  0
693  0
694  0
695  0
696  0
697  0
698  0
699  0
700  0
701  0
702  0
703  0
704  0
705  0
706  0
707  0
708  0
709  0
710  0
711  0
712  0
713  0
714  0
715  0
716  0
717  0
718  0
719  0
720  0
721  0
722  0
723  0
724  0
725  0
726  0
727  0
728  0
729  0
730  0
731  0
732  0
733  0
734  0
735  0
736  0
737  0
738  0
739  0
740  0
741  0
742  0
743  0
744  0
745  0
746  0
747  0
748  0
749  0
750  0
751  0
752  0
753  0
754  0
755  0
756  0
757  0
758  0
759  0
760  0
761  0
762  0
763  0
764  0
765  0
766  0
767  0
768  0
769  0
770  0
771  0
772  0
773  0
774  0
775  0
776  0
777  0
778  0
779  0
780  0
781  0
782  0
783  0
784  0
785  0
786  0
787  0
788  0
789  0
790  0
791  0
792  0
793  0
794  0
795  0
796  0
797  0
798  0
799  0
800  0
801  0
802  0
803  0
804  0
805  0
806  0
807  0
808  0
809  0
810  0
811  0
812  0
813  0
814  0
815  0
816  0
817  0
818  0
819  0
820  0
821  0
822  0
823  0
824  0
825  0
826  0
827  0
828  0
829  0
830  0
831  0
832  0
833  0
834  0
835  0
836  0
837  0
838  0
839  0
840  0
841  0
842  0
843  0
844  0
845  0
846  0
847  0
848  0
849  0
850  0
851  0
852  0
853  0
854  0
855  0
856  0
857  0
858  0
859  0
860  0
861  0
862  0
863  0
864  0
865  0
866  0
867  0
868  0
869  0
870  0
871  0
872  0
873  0
874  0
875  0
876  0
877  0
878  0
879  0
880  0
881  0
882  0
883  0
884  0
885  0
886  0
887  0
888  0
889  0
890  0
891  0
892  0
893  0
894  0
895  0
896  0
897  0
898  0
899  0
900  0
901  0
902  0
903  0
904  0
905  0
906  0
907  0
908  0
909  0
910  0
911  0
912  0
913  0
914  0
915  0
916  0
917  0
918  0
919  0
920  0
921  0
922  0
923  0
924  0
925  0
926  0
927  0
928  0
929  0
930  0
931  0
932  0
933  0
934  0
935  0
936  0
937  0
938  0
939  0
940  0
941  0
942  0
943  0
944  0
945  0
946  0
947  0
948  0
949  0
950  0
951  0
952  0
953  0
954  0
955  0
956  0
957  0
958  0
959  0
960  0
961  0
962  0
963  0
964  0
965  0
966  0
967  0
968  0
969  0
970  0
971  0
972  0
973  0
974  0
975  0
976  0
977  0
978  0
979  0
980  0
981  0
982  0
983  0
984  0
985  0
986  0
987  0
988  0
989  0
990  0
991  0
992  0
993  0
994  0
995  0
996  0
997  0
998  0
999  0
1000  0
1001  0
1002  0
1003  0
1004  0
1005  0
1006  0
1007  0
1008  0
1009  0
1010  0
1011  0
1012  0
1013  0
1014  0
1015  0
1016  0
1017  0
1018  0
1019  0
1020  0
1021  0
1022  0
1023  0
1024  0
1025  0
1026  0
1027  0
1028  0
1029  0
1030  0
1031  0
1032  0
1033  0
1034  0
1035  0
1036  0
1037  0
1038  0
1039  0
1040  0
1041  0
1042  0
1043  0
1044  0
1045  0
1046  0
1047  0
1048  0
1049  0
1050  0
1051  0
1052  0
1053  0
1054  0
1055  0
1056  0
1057  0
1058  0
1059  0
1060  0
1061  0
1062  0
1063  0
1064  0
1065  0
1066  0
1067  0
1068  0
1069  0
1070  0
1071  0
1072  0
1073  0
1074  0
1075  0
1076  0
1077  0
1078  0
1079  0
1080  0
1081  0
1082  0
1083  0
1084  0
1085  0
1086  0
1087  0
1088  0
1089  0
1090  0
1091  0
1092  0
1093  0
1094  0
1095  0
1096  0
1097  0
1098  0
1099  0
1100  0
1101  0
1102  0
1103  0
1104  0
1105  0
1106  0
1107  0
1108  0
1109  0
1110  0
1111  0
1112  0
1113  0
1114  0
1115  0
1116  0
1117  0
1118  0
1119  0
1120  0
1121  0
1122  0
1123  0
1124  0
1125  0
1126  0
1127  0
1128  0
1129  0
1130  0
1131  0
1132  0
1133  0
1134  0
1135  0
1136  0
1137  0
1138  0
1139  0
1140  0
1141  0
1142  0
1143  0
1144  0
1145  0
1146  0
1147  0
1148  0
1149  0
1150  0
1151  0
1152  0
1153  0
1154  0
1155  0
1156  0
1157  0
1158  0
1159  0
1160  0
1161  0
1162  0
1163  0
1164  0
1165  0
1166  0
1167  0
1168  0
1169  0
1170  0
1171  0
1172  0
1173  0
1174  0
1175  0
1176  0
1177  0
1178  0
1179  0
1180  0
1181  0
1182  0
1183  0
1184  0
1185  0
1186  0
1187  0
1188  0
1189  0
1190  0
1191  0
1192  0
1193  0
1194  0
1195  0
1196  0
1197  0
1198  0
1199  0
1200  0
1201  0
1202  0
1203  0
1204  0
1205  0
1206  0
1207  0
1208  0
1209  0
1210  0
1211  0
1212  0
1213  0
1214  0
1215  0
1216  0
1217  0
1218  0
1219  0
1220  0
1221  0
1222  0
1223  0
1224  0
1225  0
1226  0
1227  0
1228  0
1229  0
1230  0
1231  0
1232  0
1233  0
1234  0
1235  0
1236  0
1237  0
1238  0
1239  0
1240  0
1241  0
1242  0
1243  0
1244  0
1245  0
1246  0
1247  0
1248  0
1249  0
1250  0
1251  0
1252  0
1253  0
1254  0
1255  0
1256  0
1257  0
1258  0
1259  0
1260  0
1261  0
1262  0
1263  0
1264  0
1265  0
1266  0
1267  0
1268  0
1269  0
1270  0
1271  0
1272  0
1273  0
1274  0
1275  0
1276  0
1277  0
1278  0
1279  0
1280  0
1281  0
1282  0
1283  0
1284  0
1285  0
1286  0
1287  0
1288  0
1289  0
1290  0
1291  0
1292  0
1293  0
1294  0
1295  0
1296  0
1297  0
1298  0
1299  0
1300  0
1301  0
1302  0
1303  0
1304  0
1305  0
1306  0
1307  0
1308  0
1309  0
1310  0
1311  0
1312  0
1313  0
1314  0
1315  0
1316  0
1317  0
1318  0
1319  0
1320  0
1321  0
1322  0
1323  0
1324  0
1325  0
1326  0
1327  0
1328  0
1329  0
1330  0
1331  0
1332  0
1333  0
1334  0
1335  0
1336  0
1337  0
1338  0
1339  0
1340  0
1341  0
1342  0
1343  0
1344  0
1345  0
1346  0
1347  0
1348  0
1349  0
1350  0
1351  0
1352  0
1353  0
1354  0
1355  0
1356  0
1357  0
1358  0
1359  0
1360  0
1361  0
1362  0
1363  0
1364  0
1365  0
1366  0
1367  0
1368  0
1369  0
1370  0
1371  0
1372  0
1373  0
1374  0
1375  0
1376  0
1377  0
1378  0
1379  0
1380  0
1381  0
1382  0
1383  0
1384  0
1385  0
1386  0
1387  0
1388  0
1389  0
1390  0
1391  0
1392  0
1393  0
1394  0
1395  0
1396  0
1397  0
1398  0
1399  0
1400  0
1401  0
1402  0
1403  0
1404  0
1405  0
1406  0
1407  0
1408  0
1409  0
1410  0
1411  0
1412  0
1413  0
1414  0
1415  0
1416  0
1417  0
1418  0
1419  0
1420  0
1421  0
1422  0
1423  0
1424  0
1425  0
1426  0
1427  0
1428  0
1429  0
1430  0
1431  0
1432  0
1433  0
1434  0
1435  0
1436  0
1437  0
1438  0
1439  0
1440  0
1441  0
1442  0
1443  0
1444  0
1445  0
1446  0
1447  0
1448  0
1449  0
1450  0
1451  0
1452  0
1453  0
1454  0
1455  0
1456  0
1457  0
1458  0
1459  0
1460  0
1461  0
1462  0
1463  0
1464  0
1465  0
1466  0
1467  0
1468  0
1469  0
1470  0
1471  0
1472  0
1473  0
1474  0
1475  0
1476  0
1477  0
1478  0
1479  0
1480  0
1481  0
1482  0
1483  0
1484  0
1485  0
1486  0
1487  0
1488  0
1489  0
1490  0
1491  0
1492  0
1493  0
1494  0
1495  0
1496  0
1497  0
1498  0
1499  0
1500  0
1501  0
1502  0
1503  0
1504  0
1505  0
1506  0
1507  0
1508  0
1509  0
1510  0
1511  0
1512  0
1513  0
1514  0
1515  0
1516  0
1517  0
1518  0
1519  0
1520  0
1521  0
1522  0
1523  0
1524  0
1525  0
1526  0
1527  0
1528  0
1529  0
1530  0
1531  0
1532  0
1533  0
1534  0
1535  0
1536  0
1537  0
1538  0
1539  0
1540  0
1541  0
1542  0
1543  0
1544  0
1545  0
1546  0
1547  0
1548  0
1549  0
1550  0
1551  0
1552  0
1553  0
1554  0
1555  0
1556  0
1557  0
1558  0
1559  0
1560  0
1561  0
1562  0
1563  0
1564  0
1565  0
1566  0
1567  0
1568  0
1569  0
1570  0
1571  0
1572  0
1573  0
1574  0
1575  0
1576  0
1577  0
1578  0
1579  0
1580  0
1581  0
1582  0
1583  0
1584  0
1585  0
1586  0
1587  0
1588  0
1589  0
1590  0
1591  0
1592  0
1593  0
1594  0
1595  0
1596  0
1597  0
1598  0
1599  0
1600  0
1601  0
1602  0
1603  0
1604  0
1605  0
1606  0
1607  0
1608  0
1609  0
1610  0
1611  0
1612  0
1613  0
1614  0
1615  0
1616  0
1617  0
1618  0
1619  0
1620  0
1621  0
1622  0
1623  0
1624  0
1625  0
1626  0
1627  0
1628  0
1629  0
1630  0
1631  0
1632  0
1633  0
1634  0
1635  0
1636  0
1637  0
1638  0
1639  0
1640  0
1641  0
1642  0
1643  0
1644  0
1645  0
1646  0
1647  0
1648  0
1649  0
1650  0
1651  0
1652  0
1653  0
1654  0
1655  0
1656  0
1657  0
1658  0
1659  0
1660  0
1661  0
1662  0
1663  0
1664  0
1665  9
1666  262
1667  1419
1668  2684
1669  3406
1670  3337
1671  3228
1672  3124
1673  3045
1674  2899
1675  2826
1676  2722
1677  2637
1678  2582
1679  2585
1680  2330
1681  2307
1682  2021
1683  2172
1684  1942
1685  1918
1686  1771
1687  1722
1688  1738
1689  1627
1690  1565
1691  1502
1692  1471
1693  1406
1694  1285
1695  1250
1696  1260
1697  1185
1698  1157
1699  1103
1700  1064
1701  1061
1702  961
1703  1037
1704  908
1705  882
1706  837
1707  847
1708  850
1709  786
1710  738
1711  734
1712  725
1713  692
1714  658
1715  637
1716  575
1717  537
1718  592
1719  580
1720  541
1721  525
1722  517
1723  538
1724  463
1725  484
1726  467
1727  451
1728  435
1729  459
1730  434
1731  381
1732  383
1733  378
1734  355
1735  391
1736  359
1737  341
1738  345
1739  323
1740  343
1741  323
1742  327
1743  363
1744  279
1745  307
1746  305
1747  305
1748  277
1749  301
1750  267
1751  259
1752  278
1753  282
1754  265
1755  269
1756  287
1757  286
1758  264
1759  305
1760  287
1761  290
1762  311
1763  292
1764  286
1765  299
1766  267
1767  299
1768  283
1769  276
1770  287
1771  302
1772  283
1773  300
1774  327
1775  350
1776  360
1777  339
1778  345
1779  373
1780  365
1781  374
1782  364
1783  363
1784  411
1785  377
1786  410
1787  420
1788  421
1789  431
1790  425
1791  455
1792  468
1793  482
1794  477
1795  525
1796  527
1797  543
1798  543
1799  592
1800  597
1801  640
1802  610
1803  663
1804  641
1805  674
1806  700
1807  708
1808  780
1809  764
1810  819
1811  799
1812  869
1813  743
1814  879
1815  923
1816  946
1817  976
1818  1020
1819  1041
1820  1095
1821  1114
1822  1157
1823  1194
1824  1253
1825  1254
1826  1360
1827  1359
1828  1338
1829  1434
1830  1508
1831  1500
1832  1521
1833  1579
1834  1665
1835  1639
1836  1823
1837  1780
1838  1874
1839  1942
1840  1980
1841  2069
1842  2096
1843  2176
1844  2186
1845  2258
1846  2353
1847  2455
1848  2442
1849  2548
1850  2603
1851  2669
1852  2721
1853  2892
1854  2925
1855  3006
1856  3024
1857  3304
1858  3279
1859  3367
1860  3430
1861  3483
1862  3537
1863  3574
1864  3716
1865  3883
1866  3844
1867  4010
1868  4094
1869  4293
1870  4260
1871  4418
1872  4655
1873  4565
1874  4715
1875  4649
1876  4877
1877  4859
1878  5054
1879  5137
1880  5215
1881  5484
1882  5451
1883  5500
1884  5669
1885  5866
1886  5806
1887  5963
1888  6123
1889  6181
1890  6246
1891  6350
1892  6629
1893  6582
1894  6714
1895  6866
1896  6938
1897  6884
1898  7151
1899  7171
1900  7337
1901  7344
1902  7496
1903  7653
1904  7663
1905  7632
1906  7824
1907  7995
1908  7910
1909  8080
1910  8320
1911  8292
1912  8456
1913  8426
1914  8553
1915  8505
1916  8759
1917  8832
1918  8795
1919  8964
1920  9010
1921  9253
1922  9178
1923  9260
1924  9293
1925  9416
1926  9384
1927  9433
1928  9628
1929  9625
1930  9931
1931  9843
1932  9649
1933  9989
1934  10081
1935  10231
1936  9976
1937  10069
1938  10266
1939  10390
1940  10327
1941  10509
1942  10382
1943  10526
1944  10765
1945  10624
1946  10665
1947  10716
1948  10826
1949  10849
1950  10908
1951  10852
1952  11001
1953  10906
1954  11108
1955  10861
1956  11151
1957  11378
1958  11058
1959  11263
1960  11115
1961  11146
1962  11191
1963  11383
1964  11107
1965  11188
1966  11472
1967  11401
1968  11194
1969  11311
1970  11404
1971  11318
1972  11220
1973  11395
1974  11444
1975  11204
1976  11321
1977  11449
1978  11350
1979  11324
1980  11554
1981  11389
1982  11290
1983  11413
1984  11505
1985  11532
1986  11363
1987  11268
1988  11013
1989  11210
1990  11197
1991  11389
1992  11317
1993  11215
1994  11225
1995  11224
1996  11166
1997  10976
1998  11226
1999  11113
2000  11261
2001  11083
2002  11160
2003  10915
2004  11129
2005  11020
2006  11081
2007  10909
2008  10931
2009  11021
2010  10701
2011  10773
2012  10659
2013  10748
2014  10677
2015  10539
2016  10638
2017  10631
2018  10536
2019  10495
2020  10434
2021  10440
2022  10229
2023  10361
2024  10296
2025  10158
2026  10313
2027  10018
2028  10225
2029  10098
2030  9817
2031  9964
2032  10009
2033  9986
2034  9946
2035  9747
2036  9854
2037  9644
2038  9578
2039  9482
2040  9460
2041  9456
2042  9421
2043  9323
2044  9379
2045  9344
2046  9110
2047  9133
2048  9265
2049  9211
2050  9111
2051  8986
2052  8893
2053  8789
2054  8721
2055  8661
2056  8636
2057  8710
2058  8770
2059  8383
2060  8461
2061  8359
2062  8413
2063  8293
2064  8352
2065  8255
2066  8385
2067  8073
2068  8057
2069  8145
2070  7998
2071  7753
2072  8055
2073  7806
2074  7869
2075  7705
2076  7603
2077  7625
2078  7573
2079  7484
2080  7402
2081  7473
2082  7269
2083  7273
2084  7367
2085  7260
2086  7199
2087  7145
2088  6999
2089  7050
2090  6924
2091  7042
2092  6690
2093  6850
2094  6593
2095  6644
2096  6701
2097  6657
2098  6579
2099  6410
2100  6425
2101  6335
2102  6305
2103  6191
2104  6191
2105  6320
2106  6161
2107  6193
2108  6013
2109  6055
2110  5978
2111  5816
2112  5743
2113  5752
2114  5866
2115  5839
2116  5548
2117  5566
2118  5592
2119  5530
2120  5508
2121  5415
2122  5440
2123  5314
2124  5335
2125  5179
2126  5147
2127  5287
2128  5132
2129  5047
2130  5049
2131  4930
2132  5083
2133  4887
2134  4964
2135  4949
2136  4807
2137  4777
2138  4749
2139  4629
2140  4739
2141  4547
2142  4449
2143  4606
2144  4559
2145  4422
2146  4353
2147  4354
2148  4398
2149  4254
2150  4248
2151  4227
2152  4240
2153  4120
2154  4184
2155  4042
2156  4153
2157  3930
2158  3988
2159  3932
2160  3863
2161  3974
2162  4076
2163  3773
2164  3725
2165  3739
2166  3854
2167  3677
2168  3656
2169  3575
2170  3663
2171  3585
2172  3562
2173  3460
2174  3427
2175  3373
2176  3304
2177  3320
2178  3390
2179  3397
2180  3294
2181  3288
2182  3129
2183  3177
2184  3228
2185  3161
2186  3038
2187  3057
2188  2987
2189  2932
2190  2959
2191  2927
2192  2841
2193  2850
2194  2775
2195  2836
2196  2792
2197  2800
2198  2855
2199  2668
2200  2623
2201  2583
2202  2611
2203  2708
2204  2589
2205  2630
2206  2626
2207  2563
2208  2498
2209  2530
2210  2491
2211  2442
2212  2359
2213  2362
2214  2475
2215  2415
2216  2345
2217  2380
2218  2300
2219  2378
2220  2217
2221  2208
2222  2207
2223  2244
2224  2176
2225  2211
2226  2125
2227  2124
2228  2144
2229  2092
2230  2090
2231  2005
2232  2054
2233  1973
2234  1985
2235  2068
2236  1919
2237  1865
2238  1901
2239  1932
2240  1869
2241  1854
2242  1905
2243  1856
2244  1772
2245  1820
2246  1911
2247  1751
2248  1785
2249  1699
2250  1668
2251  1766
2252  1740
2253  1741
2254  1608
2255  1651
2256  1570
2257  1563
2258  1547
2259  1597
2260  1549
2261  1544
2262  1536
2263  1542
2264  1512
2265  1492
2266  1506
2267  1425
2268  1515
2269  1436
2270  1420
2271  1427
2272  1343
2273  1305
2274  1328
2275  1362
2276  1317
2277  1372
2278  1321
2279  1271
2280  1329
2281  1315
2282  1269
2283  1265
2284  1227
2285  1217
2286  1212
2287  1176
2288  1186
2289  1162
2290  1125
2291  1115
2292  1130
2293  1088
2294  1106
2295  1138
2296  1098
2297  1186
2298  1093
2299  1101
2300  1031
2301  1052
2302  996
2303  1047
2304  1043
2305  993
2306  972
2307  992
2308  1032
2309  976
2310  977
2311  923
2312  945
2313  954
2314  962
2315  986
2316  910
2317  926
2318  884
2319  933
2320  892
2321  874
2322  867
2323  875
2324  848
2325  885
2326  779
2327  878
2328  836
2329  804
2330  786
2331  806
2332  800
2333  814
2334  745
2335  777
2336  779
2337  740
2338  756
2339  759
2340  769
2341  720
2342  751
2343  716
2344  718
2345  716
2346  658
2347  685
2348  645
2349  680
2350  673
2351  637
2352  668
2353  616
2354  668
2355  670
2356  611
2357  635
2358  644
2359  626
2360  618
2361  609
2362  585
2363  640
2364  597
2365  616
2366  573
2367  570
2368  601
2369  578
2370  598
2371  533
2372  573
2373  539
2374  571
2375  572
2376  551
2377  544
2378  497
2379  483
2380  497
2381  495
2382  501
2383  511
2384  493
2385  475
2386  478
2387  493
2388  477
2389  437
2390  459
2391  469
2392  426
2393  467
2394  448
2395  464
2396  443
2397  477
2398  402
2399  429
2400  445
2401  453
2402  389
2403  410
2404  398
2405  419
2406  420
2407  436
2408  425
2409  448
2410  374
2411  357
2412  390
2413  351
2414  364
2415  388
2416  365
2417  367
2418  425
2419  342
2420  375
2421  355
2422  363
2423  345
2424  355
2425  337
2426  354
2427  347
2428  318
2429  321
2430  336
2431  317
2432  313
2433  333
2434  330
2435  296
2436  276
2437  314
2438  293
2439  304
2440  332
2441  277
2442  285
2443  266
2444  280
2445  285
2446  250
2447  304
2448  295
2449  282
2450  277
2451  255
2452  302
2453  262
2454  276
2455  261
2456  268
2457  255
2458  245
2459  264
2460  234
2461  247
2462  242
2463  267
2464  240
2465  238
2466  259
2467  269
2468  233
2469  283
2470  230
2471  217
2472  237
2473  214
2474  232
2475  230
2476  222
2477  240
2478  198
2479  209
2480  237
2481  207
2482  205
2483  217
2484  221
2485  194
2486  198
2487  190
2488  192
2489  204
2490  207
2491  211
2492  172
2493  214
2494  198
2495  165
2496  201
2497  188
2498  186
2499  177
2500  175
2501  182
2502  188
2503  172
2504  192
2505  157
2506  177
2507  171
2508  182
2509  169
2510  182
2511  160
2512  155
2513  169
2514  153
2515  172
2516  159
2517  144
2518  171
2519  168
2520  163
2521  154
2522  173
2523  146
2524  159
2525  165
2526  153
2527  169
2528  138
2529  141
2530  154
2531  157
2532  142
2533  132
2534  136
2535  136
2536  143
2537  139
2538  164
2539  120
2540  133
2541  143
2542  123
2543  138
2544  132
2545  123
2546  112
2547  150
2548  119
2549  137
2550  126
2551  99
2552  144
2553  139
2554  134
2555  115
2556  113
2557  115
2558  112
2559  122
2560  115
2561  107
2562  113
2563  123
2564  120
2565  96
2566  120
2567  101
2568  107
2569  110
2570  117
2571  113
2572  102
2573  98
2574  102
2575  110
2576  104
2577  95
2578  102
2579  105
2580  114
2581  102
2582  99
2583  90
2584  103
2585  113
2586  81
2587  118
2588  84
2589  101
2590  88
2591  101
2592  85
2593  74
2594  100
2595  97
2596  77
2597  85
2598  94
2599  84
2600  87
2601  76
2602  76
2603  84
2604  93
2605  85
2606  83
2607  70
2608  82
2609  67
2610  83
2611  81
2612  92
2613  85
2614  86
2615  83
2616  83
2617  67
2618  73
2619  83
2620  64
2621  80
2622  66
2623  75
2624  73
2625  79
2626  70
2627  66
2628  71
2629  61
2630  45
2631  78
2632  70
2633  70
2634  82
2635  81
2636  67
2637  47
2638  60
2639  63
2640  59
2641  65
2642  71
2643  78
2644  58
2645  61
2646  56
2647  56
2648  57
2649  69
2650  60
2651  75
2652  62
2653  50
2654  63
2655  67
2656  60
2657  56
2658  58
2659  57
2660  64
2661  66
2662  44
2663  57
2664  48
2665  64
2666  56
2667  49
2668  69
2669  54
2670  49
2671  56
2672  51
2673  52
2674  64
2675  57
2676  57
2677  42
2678  62
2679  52
2680  45
2681  47
2682  42
2683  58
2684  47
2685  44
2686  60
2687  51
2688  47
2689  48
2690  30
2691  54
2692  53
2693  45
2694  48
2695  45
2696  45
2697  46
2698  42
2699  41
2700  42
2701  55
2702  49
2703  53
2704  56
2705  41
2706  52
2707  42
2708  39
2709  60
2710  40
2711  34
2712  57
2713  37
2714  46
2715  42
2716  27
2717  48
2718  44
2719  41
2720  42
2721  25
2722  29
2723  30
2724  29
2725  43
2726  47
2727  41
2728  40
2729  36
2730  40
2731  43
2732  30
2733  44
2734  24
2735  33
2736  38
2737  31
2738  30
2739  20
2740  25
2741  40
2742  33
2743  32
2744  29
2745  43
2746  39
2747  32
2748  33
2749  34
2750  29
2751  32
2752  32
2753  32
2754  32
2755  22
2756  38
2757  35
2758  30
2759  39
2760  22
2761  38
2762  31
2763  32
2764  48
2765  27
2766  23
2767  27
2768  36
2769  33
2770  34
2771  31
2772  33
2773  27
2774  41
2775  19
2776  23
2777  29
2778  23
2779  29
2780  34
2781  32
2782  26
2783  33
2784  35
2785  23
2786  28
2787  20
2788  24
2789  28
2790  29
2791  29
2792  26
2793  28
2794  26
2795  26
2796  35
2797  30
2798  23
2799  23
2800  34
2801  21
2802  22
2803  27
2804  26
2805  24
2806  20
2807  23
2808  24
2809  25
2810  29
2811  30
2812  28
2813  40
2814  31
2815  30
2816  22
2817  20
2818  24
2819  26
2820  25
2821  20
2822  22
2823  21
2824  17
2825  28
2826  20
2827  29
2828  27
2829  22
2830  19
2831  16
2832  18
2833  14
2834  17
2835  18
2836  27
2837  20
2838  18
2839  25
2840  18
2841  18
2842  18
2843  20
2844  19
2845  23
2846  23
2847  16
2848  26
2849  21
2850  20
2851  13
2852  20
2853  22
2854  14
2855  19
2856  18
2857  18
2858  13
2859  18
2860  25
2861  16
2862  24
2863  11
2864  20
2865  20
2866  17
2867  24
2868  25
2869  13
2870  8
2871  14
2872  24
2873  28
2874  11
2875  22
2876  15
2877  18
2878  8
2879  19
2880  16
2881  11
2882  16
2883  19
2884  8
2885  16
2886  15
2887  21
2888  10
2889  17
2890  13
2891  18
2892  14
2893  14
2894  10
2895  14
2896  23
2897  19
2898  15
2899  15
2900  16
2901  18
2902  13
2903  9
2904  11
2905  15
2906  11
2907  18
2908  13
2909  15
2910  19
2911  15
2912  14
2913  11
2914  14
2915  18
2916  12
2917  15
2918  20
2919  19
2920  10
2921  14
2922  18
2923  15
2924  14
2925  12
2926  15
2927  17
2928  10
2929  11
2930  14
2931  10
2932  16
2933  12
2934  12
2935  8
2936  15
2937  11
2938  6
2939  11
2940  11
2941  11
2942  14
2943  21
2944  19
2945  12
2946  8
2947  10
2948  16
2949  13
2950  9
2951  15
2952  9
2953  13
2954  21
2955  5
2956  12
2957  17
2958  9
2959  15
2960  12
2961  9
2962  15
2963  12
2964  7
2965  13
2966  11
2967  4
2968  14
2969  14
2970  8
2971  10
2972  13
2973  8
2974  16
2975  14
2976  11
2977  13
2978  10
2979  12
2980  14
2981  8
2982  14
2983  10
2984  12
2985  12
2986  10
2987  14
2988  8
2989  7
2990  10
2991  16
2992  7
2993  7
2994  9
2995  9
2996  13
2997  8
2998  10
2999  7
3000  17
3001  6
3002  12
3003  12
3004  11
3005  9
3006  11
3007  10
3008  13
3009  8
3010  11
3011  17
3012  11
3013  7
3014  8
3015  7
3016  11
3017  9
3018  10
3019  3
3020  6
3021  14
3022  4
3023  10
3024  7
3025  12
3026  2
3027  10
3028  10
3029  8
3030  10
3031  4
3032  4
3033  6
3034  5
3035  9
3036  10
3037  9
3038  6
3039  9
3040  9
3041  12
3042  13
3043  7
3044  13
3045  9
3046  9
3047  13
3048  8
3049  12
3050  8
3051  5
3052  7
3053  9
3054  5
3055  8
3056  2
3057  8
3058  5
3059  12
3060  14
3061  17
3062  5
3063  6
3064  11
3065  6
3066  7
3067  9
3068  7
3069  6
3070  16
3071  6
3072  8
3073  8
3074  9
3075  8
3076  6
3077  10
3078  7
3079  4
3080  11
3081  4
3082  7
3083  10
3084  6
3085  5
3086  7
3087  8
3088  8
3089  8
3090  10
3091  6
3092  8
3093  7
3094  7
3095  12
3096  9
3097  3
3098  6
3099  7
3100  8
3101  9
3102  3
3103  3
3104  4
3105  8
3106  7
3107  4
3108  5
3109  13
3110  5
3111  9
3112  12
3113  7
3114  5
3115  4
3116  3
3117  6
3118  3
3119  11
3120  8
3121  5
3122  6
3123  6
3124  4
3125  11
3126  13
3127  7
3128  7
3129  4
3130  15
3131  3
3132  9
3133  5
3134  4
3135  8
3136  9
3137  5
3138  8
3139  3
3140  4
3141  7
3142  10
3143  5
3144  7
3145  9
3146  6
3147  7
3148  6
3149  4
3150  7
3151  5
3152  6
3153  3
3154  7
3155  5
3156  8
3157  6
3158  6
3159  4
3160  8
3161  3
3162  11
3163  10
3164  8
3165  11
3166  7
3167  5
3168  7
3169  5
3170  6
3171  4
3172  4
3173  9
3174  5
3175  5
3176  5
3177  4
3178  6
3179  5
3180  4
3181  7
3182  6
3183  7
3184  8
3185  3
3186  5
3187  4
3188  3
3189  6
3190  7
3191  6
3192  9
3193  5
3194  5
3195  9
3196  3
3197  3
3198  4
3199  6
3200  10
3201  2
3202  8
3203  4
3204  5
3205  6
3206  6
3207  9
3208  9
3209  6
3210  10
3211  5
3212  7
3213  11
3214  6
3215  5
3216  6
3217  4
3218  3
3219  4
3220  4
3221  7
3222  3
3223  9
3224  7
3225  9
3226  3
3227  6
3228  7
3229  3
3230  5
3231  3
3232  6
3233  5
3234  2
3235  4
3236  4
3237  7
3238  4
3239  3
3240  2
3241  7
3242  4
3243  4
3244  4
3245  5
3246  2
3247  6
3248  3
3249  7
3250  4
3251  10
3252  1
3253  3
3254  6
3255  3
3256  2
3257  4
3258  2
3259  12
3260  5
3261  2
3262  3
3263  4
3264  4
3265  4
3266  5
3267  4
3268  4
3269  4
3270  3
3271  5
3272  6
3273  5
3274  3
3275  3
3276  4
3277  7
3278  6
3279  6
3280  11
3281  4
3282  3
3283  6
3284  7
3285  4
3286  3
3287  0
3288  1
3289  5
3290  2
3291  2
3292  5
3293  3
3294  1
3295  5
3296  3
3297  6
3298  5
3299  2
3300  5
3301  3
3302  2
3303  10
3304  11
3305  6
3306  2
3307  3
3308  2
3309  2
3310  4
3311  7
3312  5
3313  2
3314  2
3315  2
3316  2
3317  7
3318  3
3319  5
3320  4
3321  2
3322  6
3323  4
3324  3
3325  4
3326  3
3327  5
3328  2
3329  3
3330  5
3331  0
3332  3
3333  3
3334  7
3335  0
3336  6
3337  1
3338  3
3339  4
3340  4
3341  3
3342  4
3343  4
3344  1
3345  4
3346  1
3347  5
3348  5
3349  2
3350  1
3351  6
3352  6
3353  3
3354  5
3355  3
3356  2
3357  3
3358  4
3359  1
3360  2
3361  5
3362  3
3363  2
3364  3
3365  6
3366  5
3367  3
3368  6
3369  4
3370  2
3371  5
3372  3
3373  5
3374  3
3375  4
3376  4
3377  2
3378  2
3379  6
3380  3
3381  1
3382  4
3383  1
3384  4
3385  3
3386  7
3387  3
3388  6
3389  5
3390  4
3391  0
3392  2
3393  3
3394  4
3395  3
3396  1
3397  3
3398  5
3399  4
3400  3
3401  6
3402  3
3403  2
3404  5
3405  1
3406  3
3407  5
3408  4
3409  5
3410  1
3411  4
3412  4
3413  4
3414  3
3415  1
3416  4
3417  3
3418  2
3419  3
3420  1
3421  1
3422  4
3423  7
3424  4
3425  1
3426  2
3427  2
3428  3
3429  1
3430  5
3431  5
3432  0
3433  7
3434  3
3435  4
3436  4
3437  2
3438  2
3439  2
3440  2
3441  2
3442  7
3443  1
3444  5
3445  5
3446  2
3447  1
3448  2
3449  2
3450  5
3451  4
3452  5
3453  2
3454  4
3455  4
3456  2
3457  3
3458  1
3459  4
3460  4
3461  3
3462  2
3463  3
3464  2
3465  2
3466  1
3467  4
3468  2
3469  1
3470  1
3471  3
3472  1
3473  3
3474  1
3475  5
3476  6
3477  0
3478  4
3479  3
3480  0
3481  3
3482  3
3483  4
3484  1
3485  1
3486  2
3487  3
3488  2
3489  2
3490  3
3491  3
3492  4
3493  3
3494  2
3495  2
3496  3
3497  1
3498  2
3499  5
3500  1
3501  3
3502  3
3503  1
3504  1
3505  3
3506  6
3507  2
3508  3
3509  1
3510  2
3511  3
3512  4
3513  1
3514  5
3515  3
3516  1
3517  8
3518  3
3519  3
3520  1
3521  2
3522  3
3523  2
3524  3
3525  2
3526  4
3527  4
3528  4
3529  4
3530  5
3531  2
3532  5
3533  5
3534  2
3535  6
3536  2
3537  2
3538  2
3539  4
3540  1
3541  2
3542  6
3543  3
3544  2
3545  0
3546  0
3547  1
3548  1
3549  5
3550  0
3551  0
3552  3
3553  3
3554  2
3555  3
3556  1
3557  2
3558  2
3559  2
3560  3
3561  2
3562  3
3563  2
3564  3
3565  1
3566  4
3567  1
3568  2
3569  0
3570  1
3571  3
3572  1
3573  5
3574  4
3575  2
3576  5
3577  1
3578  2
3579  3
3580  0
3581  4
3582  1
3583  0
3584  0
3585  3
3586  3
3587  2
3588  0
3589  2
3590  2
3591  0
3592  1
3593  2
3594  1
3595  3
3596  2
3597  2
3598  2
3599  3
3600  5
3601  3
3602  2
3603  2
3604  1
3605  3
3606  3
3607  3
3608  2
3609  4
3610  3
3611  3
3612  2
3613  2
3614  4
3615  1
3616  0
3617  4
3618  3
3619  1
3620  1
3621  1
3622  1
3623  1
3624  3
3625  2
3626  2
3627  2
3628  2
3629  6
3630  4
3631  1
3632  1
3633  0
3634  2
3635  2
3636  4
3637  4
3638  1
3639  1
3640  1
3641  1
3642  2
3643  4
3644  0
3645  2
3646  2
3647  0
3648  2
3649  0
3650  1
3651  2
3652  4
3653  2
3654  0
3655  4
3656  1
3657  1
3658  3
3659  1
3660  2
3661  0
3662  1
3663  0
3664  3
3665  4
3666  3
3667  1
3668  1
3669  4
3670  2
3671  2
3672  1
3673  1
3674  1
3675  3
3676  1
3677  1
3678  1
3679  0
3680  3
3681  3
3682  4
3683  0
3684  2
3685  2
3686  0
3687  3
3688  4
3689  0
3690  0
3691  2
3692  3
3693  4
3694  2
3695  2
3696  2
3697  1
3698  1
3699  2
3700  2
3701  0
3702  0
3703  1
3704  1
3705  1
3706  1
3707  1
3708  3
3709  2
3710  3
3711  1
3712  1
3713  1
3714  3
3715  2
3716  2
3717  3
3718  0
3719  1
3720  4
3721  3
3722  3
3723  3
3724  2
3725  1
3726  3
3727  1
3728  1
3729  2
3730  2
3731  1
3732  1
3733  1
3734  4
3735  1
3736  0
3737  0
3738  2
3739  3
3740  1
3741  1
3742  2
3743  1
3744  1
3745  1
3746  5
3747  2
3748  3
3749  0
3750  2
3751  1
3752  1
3753  2
3754  1
3755  2
3756  1
3757  3
3758  3
3759  2
3760  3
3761  2
3762  0
3763  1
3764  3
3765  1
3766  0
3767  1
3768  1
3769  1
3770  1
3771  3
3772  2
3773  2
3774  1
3775  3
3776  2
3777  2
3778  0
3779  1
3780  2
3781  0
3782  1
3783  1
3784  4
3785  1
3786  1
3787  1
3788  2
3789  1
3790  1
3791  2
3792  1
3793  3
3794  3
3795  0
3796  1
3797  1
3798  3
3799  0
3800  0
3801  0
3802  0
3803  2
3804  0
3805  1
3806  2
3807  0
3808  3
3809  3
3810  0
3811  1
3812  3
3813  4
3814  1
3815  2
3816  0
3817  0
3818  1
3819  3
3820  1
3821  1
3822  0
3823  0
3824  3
3825  0
3826  2
3827  2
3828  4
3829  1
3830  2
3831  2
3832  0
3833  0
3834  1
3835  1
3836  0
3837  0
3838  1
3839  3
3840  0
3841  0
3842  0
3843  0
3844  0
3845  0
3846  0
3847  0
3848  0
3849  0
3850  0
3851  0
3852  0
3853  0
3854  0
3855  0
3856  0
3857  0
3858  0
3859  0
3860  0
3861  0
3862  0
3863  0
3864  0
3865  0
3866  0
3867  0
3868  0
3869  0
3870  0
3871  0
3872  0
3873  0
3874  0
3875  0
3876  0
3877  0
3878  0
3879  0
3880  0
3881  0
3882  0
3883  0
3884  0
3885  0
3886  0
3887  0
3888  0
3889  0
3890  0
3891  0
3892  0
3893  0
3894  0
3895  0
3896  0
3897  0
3898  0
3899  0
3900  0
3901  0
3902  0
3903  0
3904  0
3905  0
3906  0
3907  0
3908  0
3909  0
3910  0
3911  0
3912  0
3913  0
3914  0
3915  0
3916  0
3917  0
3918  0
3919  0
3920  0
3921  0
3922  0
3923  0
3924  0
3925  0
3926  0
3927  0
3928  0
3929  0
3930  0
3931  0
3932  0
3933  0
3934  0
3935  0
3936  0
3937  0
3938  0
3939  0
3940  0
3941  0
3942  0
3943  0
3944  0
3945  0
3946  0
3947  0
3948  0
3949  0
3950  0
3951  0
3952  0
3953  0
3954  0
3955  0
3956  0
3957  0
3958  0
3959  0
3960  0
3961  0
3962  0
3963  0
3964  0
3965  0
3966  0
3967  0
3968  0
3969  0
3970  0
3971  0
3972  0
3973  0
3974  0
3975  0
3976  0
3977  0
3978  0
3979  0
3980  0
3981  0
3982  0
3983  0
3984  0
3985  0
3986  0
3987  0
3988  0
3989  0
3990  0
3991  0
3992  0
3993  0
3994  0
3995  0
3996  0
3997  0
3998  0
3999  0
4000  0
4001  0
4002  0
4003  0
4004  0
4005  0
4006  0
4007  0
4008  0
4009  0
4010  0
4011  0
4012  0
4013  0
4014  0
4015  0
4016  0
4017  0
4018  0
4019  0
4020  0
4021  0
4022  0
4023  0
4024  0
4025  0
4026  0
4027  0
4028  0
4029  0
4030  0
4031  0
4032  0
4033  0
4034  0
4035  0
4036  0
4037  0
4038  0
4039  0
4040  0
4041  0
4042  0
4043  0
4044  0
4045  0
4046  0
4047  0
4048  0
4049  0
4050  0
4051  0
4052  0
4053  0
4054  0
4055  0
4056  0
4057  0
4058  0
4059  0
4060  0
4061  0
4062  0
4063  0
4064  0
4065  0
4066  0
4067  0
4068  0
4069  0
4070  0
4071  0
4072  0
4073  0
4074  0
4075  0
4076  0
4077  0
4078  0
4079  0
4080  0
4081  0
4082  0
4083  0
4084  0
4085  0
4086  0
4087  0
4088  0
4089  0
4090  0
4091  0
4092  0
4093  0
4094  0
4095  0
