0  0
1  0
2  0
3  0
4  0
5  0
6  0
7  0
8  0
9  0
10  0
11  0
12  0
13  0
14  0
15  0
16  0
17  0
18  8
19  59
20  96
21  59
22  21
23  14
24  10
25  13
26  13
27  11
28  14
29  7
30  6
31  8
32  6
33  9
34  7
35  2
36  8
37  7
38  13
39  7
40  10
41  10
42  4
43  3
44  1
45  1
46  2
47  1
48  1
49  0
50  0
51  0
52  0
53  0
54  0
55  0
56  0
57  0
58  0
59  0
60  0
61  0
62  0
63  0
64  0
65  0
66  0
67  0
68  0
69  0
70  0
71  0
72  0
73  0
74  0
75  0
76  0
77  0
78  0
79  0
80  0
81  0
82  0
83  0
84  0
85  0
86  0
87  0
88  0
89  0
90  0
91  0
92  0
93  0
94  0
95  0
96  0
97  0
98  0
99  0
100  0
101  0
102  0
103  0
104  0
105  0
106  0
107  0
108  0
109  0
110  0
111  0
112  0
113  0
114  0
115  0
116  0
117  0
118  0
119  0
120  0
121  0
122  0
123  0
124  0
125  0
126  0
127  0
128  0
129  0
130  0
131  0
132  0
133  0
134  0
135  0
136  0
137  0
138  0
139  0
140  0
141  0
142  0
143  0
144  0
145  0
146  0
147  0
148  0
149  0
150  0
151  0
152  0
153  0
154  0
155  0
156  0
157  0
158  0
159  0
160  0
161  0
162  0
163  0
164  0
165  0
166  0
167  0
168  0
169  0
170  0
171  0
172  0
173  0
174  0
175  0
176  0
177  0
178  0
179  7
180  98
181  210
182  277
183  277
184  480
185  962
186  1096
187  901
188  481
189  277
190  193
191  148
192  116
193  138
194  101
195  113
196  99
197  110
198  107
199  90
200  97
201  104
202  110
203  112
204  100
205  95
206  98
207  110
208  105
209  95
210  90
211  89
212  89
213  91
214  92
215  88
216  106
217  99
218  101
219  98
220  83
221  93
222  117
223  91
224  73
225  89
226  108
227  85
228  105
229  112
230  100
231  84
232  107
233  87
234  87
235  86
236  81
237  76
238  88
239  105
240  94
241  80
242  104
243  77
244  85
245  88
246  94
247  85
248  86
249  83
250  88
251  109
252  92
253  93
254  103
255  93
256  95
257  91
258  103
259  87
260  77
261  89
262  73
263  99
264  100
265  94
266  107
267  90
268  78
269  86
270  95
271  89
272  98
273  89
274  98
275  97
276  94
277  90
278  95
279  88
280  82
281  104
282  98
283  109
284  86
285  94
286  81
287  95
288  95
289  76
290  98
291  95
292  98
293  92
294  103
295  81
296  93
297  84
298  103
299  93
300  111
301  109
302  105
303  104
304  86
305  85
306  111
307  90
308  91
309  105
310  94
311  88
312  93
313  90
314  97
315  93
316  102
317  75
318  85
319  87
320  103
321  90
322  91
323  91
324  88
325  95
326  90
327  95
328  79
329  107
330  95
331  92
332  108
333  112
334  97
335  86
336  88
337  112
338  74
339  90
340  97
341  101
342  91
343  96
344  90
345  79
346  107
347  89
348  71
349  95
350  82
351  95
352  95
353  81
354  101
355  93
356  98
357  118
358  89
359  108
360  90
361  107
362  96
363  86
364  102
365  104
366  86
367  121
368  99
369  78
370  74
371  100
372  92
373  98
374  100
375  92
376  82
377  80
378  87
379  86
380  104
381  75
382  93
383  84
384  75
385  89
386  91
387  76
388  102
389  101
390  94
391  87
392  96
393  90
394  91
395  111
396  117
397  98
398  93
399  78
400  98
401  104
402  91
403  99
404  102
405  119
406  94
407  97
408  93
409  102
410  93
411  86
412  87
413  88
414  90
415  92
416  99
417  110
418  82
419  99
420  92
421  104
422  112
423  71
424  76
425  98
426  90
427  87
428  102
429  98
430  100
431  98
432  96
433  118
434  78
435  111
436  79
437  98
438  83
439  109
440  95
441  113
442  85
443  89
444  90
445  65
446  105
447  89
448  100
449  66
450  94
451  117
452  90
453  88
454  101
455  100
456  75
457  92
458  102
459  85
460  89
461  83
462  96
463  100
464  121
465  101
466  93
467  85
468  98
469  91
470  95
471  102
472  87
473  84
474  82
475  85
476  90
477  108
478  90
479  102
480  102
481  98
482  78
483  82
484  87
485  72
486  108
487  78
488  85
489  98
490  105
491  96
492  89
493  93
494  82
495  93
496  85
497  83
498  92
499  74
500  84
501  95
502  65
503  92
504  95
505  94
506  100
507  101
508  99
509  91
510  89
511  86
512  83
513  104
514  98
515  88
516  84
517  90
518  95
519  98
520  108
521  101
522  89
523  87
524  98
525  76
526  92
527  73
528  98
529  114
530  87
531  99
532  91
533  97
534  89
535  83
536  94
537  99
538  74
539  75
540  96
541  112
542  105
543  89
544  92
545  102
546  89
547  106
548  78
549  103
550  92
551  95
552  86
553  96
554  100
555  95
556  99
557  94
558  92
559  80
560  109
561  96
562  99
563  88
564  86
565  89
566  86
567  94
568  100
569  82
570  129
571  91
572  96
573  85
574  97
575  86
576  86
577  89
578  110
579  96
580  78
581  94
582  90
583  94
584  95
585  87
586  91
587  97
588  84
589  91
590  86
591  94
592  78
593  85
594  93
595  85
596  90
597  79
598  88
599  85
600  109
601  85
602  85
603  86
604  102
605  86
606  89
607  84
608  81
609  87
610  78
611  88
612  87
613  104
614  95
615  99
616  86
617  89
618  91
619  87
620  90
621  101
622  74
623  91
624  110
625  85
626  81
627  110
628  92
629  95
630  104
631  90
632  99
633  86
634  101
635  105
636  92
637  89
638  82
639  93
640  96
641  78
642  93
643  84
644  86
645  91
646  91
647  81
648  89
649  93
650  74
651  97
652  79
653  99
654  80
655  95
656  98
657  80
658  95
659  88
660  92
661  82
662  95
663  95
664  83
665  87
666  83
667  85
668  87
669  88
670  105
671  83
672  98
673  75
674  80
675  87
676  97
677  91
678  86
679  99
680  92
681  89
682  102
683  82
684  96
685  97
686  85
687  89
688  78
689  76
690  102
691  98
692  89
693  94
694  100
695  88
696  100
697  81
698  76
699  86
700  98
701  94
702  79
703  61
704  84
705  82
706  99
707  101
708  80
709  100
710  101
711  81
712  86
713  88
714  94
715  84
716  94
717  94
718  95
719  96
720  98
721  91
722  81
723  91
724  80
725  87
726  94
727  75
728  78
729  93
730  77
731  119
732  87
733  78
734  93
735  80
736  95
737  96
738  77
739  97
740  87
741  106
742  81
743  84
744  89
745  80
746  87
747  79
748  73
749  96
750  110
751  86
752  93
753  91
754  94
755  83
756  78
757  72
758  99
759  73
760  95
761  87
762  77
763  93
764  92
765  88
766  83
767  93
768  88
769  68
770  91
771  100
772  77
773  93
774  84
775  101
776  99
777  94
778  90
779  79
780  90
781  120
782  93
783  94
784  75
785  96
786  75
787  89
788  102
789  93
790  79
791  81
792  82
793  90
794  102
795  75
796  88
797  77
798  87
799  78
800  89
801  101
802  98
803  89
804  86
805  82
806  81
807  68
808  101
809  87
810  85
811  82
812  105
813  94
814  97
815  91
816  101
817  98
818  76
819  101
820  85
821  78
822  105
823  70
824  104
825  108
826  94
827  86
828  92
829  82
830  85
831  95
832  90
833  90
834  85
835  77
836  89
837  108
838  73
839  101
840  86
841  82
842  88
843  95
844  97
845  84
846  94
847  78
848  84
849  83
850  92
851  84
852  94
853  84
854  84
855  65
856  96
857  87
858  98
859  90
860  88
861  84
862  109
863  82
864  92
865  70
866  73
867  74
868  97
869  90
870  93
871  87
872  90
873  107
874  98
875  85
876  93
877  94
878  83
879  80
880  82
881  81
882  90
883  79
884  74
885  93
886  90
887  102
888  88
889  80
890  74
891  94
892  76
893  89
894  84
895  69
896  108
897  79
898  84
899  99
900  95
901  86
902  90
903  76
904  84
905  80
906  86
907  87
908  82
909  92
910  103
911  99
912  98
913  91
914  96
915  81
916  117
917  92
918  92
919  88
920  83
921  85
922  89
923  83
924  89
925  94
926  104
927  89
928  83
929  97
930  112
931  85
932  91
933  90
934  86
935  89
936  106
937  81
938  101
939  85
940  107
941  72
942  91
943  79
944  86
945  91
946  104
947  97
948  83
949  93
950  94
951  91
952  84
953  100
954  96
955  100
956  103
957  88
958  97
959  92
960  91
961  102
962  85
963  105
964  106
965  97
966  86
967  84
968  90
969  86
970  73
971  98
972  83
973  89
974  84
975  71
976  84
977  94
978  80
979  100
980  79
981  94
982  95
983  104
984  91
985  84
986  80
987  93
988  77
989  77
990  87
991  109
992  96
993  94
994  102
995  93
996  76
997  98
998  88
999  88
1000  91
1001  99
1002  87
1003  94
1004  91
1005  96
1006  95
1007  89
1008  102
1009  89
1010  85
1011  88
1012  92
1013  105
1014  96
1015  99
1016  84
1017  101
1018  82
1019  91
1020  75
1021  81
1022  103
1023  93
1024  90
1025  103
1026  93
1027  76
1028  88
1029  95
1030  94
1031  95
1032  88
1033  83
1034  105
1035  84
1036  81
1037  90
1038  106
1039  91
1040  96
1041  90
1042  90
1043  110
1044  86
1045  94
1046  89
1047  90
1048  101
1049  97
1050  84
1051  91
1052  106
1053  104
1054  85
1055  88
1056  71
1057  86
1058  86
1059  86
1060  70
1061  78
1062  103
1063  107
1064  93
1065  86
1066  92
1067  90
1068  90
1069  101
1070  88
1071  93
1072  101
1073  85
1074  77
1075  94
1076  95
1077  91
1078  92
1079  80
1080  88
1081  91
1082  109
1083  65
1084  99
1085  89
1086  96
1087  90
1088  70
1089  97
1090  93
1091  93
1092  91
1093  89
1094  88
1095  70
1096  90
1097  81
1098  84
1099  76
1100  90
1101  82
1102  94
1103  83
1104  107
1105  95
1106  95
1107  112
1108  91
1109  98
1110  90
1111  64
1112  76
1113  73
1114  101
1115  89
1116  98
1117  92
1118  99
1119  83
1120  100
1121  100
1122  99
1123  78
1124  104
1125  74
1126  89
1127  75
1128  77
1129  100
1130  88
1131  85
1132  96
1133  99
1134  98
1135  91
1136  82
1137  96
1138  96
1139  83
1140  82
1141  86
1142  81
1143  86
1144  89
1145  90
1146  99
1147  81
1148  83
1149  99
1150  84
1151  101
1152  87
1153  89
1154  92
1155  86
1156  78
1157  91
1158  93
1159  94
1160  98
1161  93
1162  80
1163  94
1164  89
1165  101
1166  103
1167  95
1168  102
1169  93
1170  101
1171  89
1172  75
1173  98
1174  84
1175  95
1176  94
1177  100
1178  91
1179  95
1180  81
1181  89
1182  98
1183  98
1184  90
1185  86
1186  90
1187  88
1188  85
1189  90
1190  96
1191  104
1192  81
1193  87
1194  116
1195  99
1196  103
1197  107
1198  99
1199  77
1200  88
1201  77
1202  99
1203  98
1204  109
1205  81
1206  92
1207  90
1208  106
1209  106
1210  78
1211  88
1212  86
1213  87
1214  90
1215  83
1216  90
1217  86
1218  87
1219  83
1220  79
1221  83
1222  100
1223  107
1224  99
1225  92
1226  85
1227  116
1228  72
1229  102
1230  90
1231  99
1232  90
1233  84
1234  77
1235  91
1236  96
1237  94
1238  78
1239  85
1240  98
1241  94
1242  96
1243  86
1244  82
1245  82
1246  91
1247  93
1248  94
1249  88
1250  90
1251  89
1252  82
1253  91
1254  101
1255  78
1256  104
1257  86
1258  89
1259  97
1260  80
1261  85
1262  82
1263  94
1264  85
1265  89
1266  87
1267  109
1268  86
1269  82
1270  88
1271  96
1272  97
1273  94
1274  104
1275  94
1276  99
1277  76
1278  83
1279  91
1280  95
1281  76
1282  95
1283  88
1284  86
1285  104
1286  104
1287  91
1288  73
1289  108
1290  88
1291  86
1292  81
1293  95
1294  75
1295  89
1296  99
1297  68
1298  78
1299  89
1300  81
1301  94
1302  86
1303  71
1304  96
1305  97
1306  91
1307  80
1308  91
1309  85
1310  70
1311  75
1312  83
1313  83
1314  95
1315  89
1316  81
1317  69
1318  79
1319  76
1320  81
1321  64
1322  87
1323  109
1324  78
1325  76
1326  87
1327  88
1328  85
1329  74
1330  91
1331  96
1332  88
1333  77
1334  76
1335  100
1336  108
1337  80
1338  94
1339  78
1340  80
1341  79
1342  95
1343  89
1344  92
1345  95
1346  94
1347  80
1348  98
1349  85
1350  89
1351  93
1352  95
1353  95
1354  68
1355  84
1356  84
1357  72
1358  69
1359  78
1360  86
1361  77
1362  74
1363  86
1364  83
1365  72
1366  80
1367  98
1368  81
1369  92
1370  80
1371  85
1372  78
1373  85
1374  76
1375  87
1376  88
1377  95
1378  84
1379  81
1380  80
1381  80
1382  95
1383  102
1384  81
1385  73
1386  86
1387  98
1388  99
1389  71
1390  64
1391  77
1392  79
1393  93
1394  84
1395  76
1396  91
1397  85
1398  91
1399  79
1400  79
1401  87
1402  95
1403  88
1404  76
1405  88
1406  86
1407  93
1408  94
1409  84
1410  87
1411  77
1412  82
1413  77
1414  92
1415  78
1416  78
1417  101
1418  89
1419  103
1420  77
1421  90
1422  99
1423  89
1424  75
1425  80
1426  109
1427  64
1428  84
1429  99
1430  97
1431  73
1432  88
1433  85
1434  89
1435  90
1436  75
1437  97
1438  79
1439  75
1440  80
1441  76
1442  76
1443  85
1444  92
1445  86
1446  85
1447  81
1448  81
1449  90
1450  78
1451  99
1452  68
1453  65
1454  102
1455  85
1456  93
1457  71
1458  72
1459  83
1460  91
1461  95
1462  79
1463  86
1464  81
1465  81
1466  75
1467  82
1468  70
1469  81
1470  100
1471  76
1472  63
1473  86
1474  74
1475  78
1476  82
1477  89
1478  75
1479  83
1480  98
1481  98
1482  88
1483  89
1484  80
1485  77
1486  79
1487  95
1488  75
1489  69
1490  95
1491  78
1492  92
1493  82
1494  70
1495  83
1496  75
1497  89
1498  97
1499  80
1500  70
1501  68
1502  73
1503  83
1504  89
1505  75
1506  72
1507  95
1508  93
1509  89
1510  94
1511  94
1512  82
1513  86
1514  79
1515  78
1516  93
1517  67
1518  99
1519  83
1520  72
1521  77
1522  70
1523  94
1524  84
1525  83
1526  90
1527  96
1528  95
1529  91
1530  74
1531  72
1532  70
1533  67
1534  78
1535  90
1536  81
1537  66
1538  77
1539  90
1540  74
1541  81
1542  86
1543  82
1544  79
1545  82
1546  68
1547  71
1548  78
1549  88
1550  70
1551  88
1552  83
1553  83
1554  80
1555  78
1556  77
1557  86
1558  78
1559  89
1560  100
1561  98
1562  97
1563  72
1564  77
1565  74
1566  83
1567  77
1568  78
1569  88
1570  81
1571  85
1572  97
1573  86
1574  87
1575  90
1576  76
1577  67
1578  81
1579  104
1580  70
1581  88
1582  103
1583  92
1584  74
1585  71
1586  97
1587  87
1588  69
1589  78
1590  86
1591  95
1592  94
1593  92
1594  71
1595  90
1596  77
1597  90
1598  93
1599  85
1600  87
1601  73
1602  88
1603  86
1604  71
1605  92
1606  87
1607  96
1608  78
1609  78
1610  74
1611  87
1612  98
1613  78
1614  85
1615  80
1616  93
1617  89
1618  85
1619  71
1620  91
1621  92
1622  86
1623  94
1624  83
1625  104
1626  75
1627  89
1628  89
1629  95
1630  83
1631  82
1632  104
1633  100
1634  113
1635  82
1636  67
1637  84
1638  80
1639  99
1640  95
1641  87
1642  92
1643  67
1644  100
1645  77
1646  86
1647  91
1648  92
1649  69
1650  77
1651  92
1652  74
1653  100
1654  91
1655  80
1656  83
1657  93
1658  83
1659  94
1660  100
1661  68
1662  103
1663  79
1664  76
1665  95
1666  86
1667  83
1668  82
1669  90
1670  85
1671  95
1672  83
1673  68
1674  81
1675  82
1676  85
1677  63
1678  88
1679  86
1680  90
1681  90
1682  91
1683  113
1684  100
1685  79
1686  86
1687  93
1688  101
1689  104
1690  89
1691  84
1692  82
1693  93
1694  81
1695  94
1696  87
1697  85
1698  90
1699  105
1700  85
1701  102
1702  89
1703  83
1704  100
1705  71
1706  81
1707  84
1708  81
1709  89
1710  89
1711  84
1712  94
1713  91
1714  79
1715  103
1716  87
1717  90
1718  83
1719  84
1720  92
1721  89
1722  92
1723  88
1724  98
1725  94
1726  82
1727  84
1728  85
1729  92
1730  89
1731  88
1732  100
1733  91
1734  85
1735  103
1736  75
1737  86
1738  80
1739  99
1740  84
1741  84
1742  88
1743  94
1744  79
1745  87
1746  89
1747  86
1748  99
1749  92
1750  92
1751  93
1752  84
1753  86
1754  92
1755  98
1756  91
1757  90
1758  79
1759  101
1760  83
1761  100
1762  77
1763  100
1764  95
1765  90
1766  80
1767  73
1768  81
1769  115
1770  91
1771  89
1772  100
1773  102
1774  75
1775  85
1776  90
1777  76
1778  95
1779  92
1780  108
1781  83
1782  81
1783  66
1784  88
1785  86
1786  100
1787  89
1788  84
1789  96
1790  75
1791  81
1792  92
1793  81
1794  87
1795  89
1796  82
1797  88
1798  95
1799  109
1800  95
1801  82
1802  78
1803  98
1804  91
1805  97
1806  72
1807  76
1808  91
1809  92
1810  97
1811  106
1812  92
1813  111
1814  86
1815  82
1816  93
1817  95
1818  98
1819  84
1820  94
1821  97
1822  88
1823  87
1824  95
1825  91
1826  103
1827  90
1828  75
1829  85
1830  100
1831  98
1832  88
1833  85
1834  100
1835  98
1836  99
1837  97
1838  108
1839  85
1840  94
1841  90
1842  83
1843  78
1844  90
1845  92
1846  91
1847  81
1848  81
1849  91
1850  89
1851  94
1852  82
1853  107
1854  76
1855  86
1856  102
1857  93
1858  88
1859  84
1860  79
1861  89
1862  90
1863  81
1864  112
1865  97
1866  85
1867  80
1868  95
1869  90
1870  76
1871  97
1872  106
1873  90
1874  129
1875  84
1876  116
1877  103
1878  80
1879  97
1880  111
1881  80
1882  88
1883  102
1884  84
1885  99
1886  93
1887  82
1888  80
1889  84
1890  77
1891  102
1892  96
1893  86
1894  95
1895  88
1896  96
1897  87
1898  91
1899  80
1900  88
1901  85
1902  100
1903  93
1904  87
1905  84
1906  70
1907  87
1908  89
1909  91
1910  107
1911  76
1912  95
1913  95
1914  82
1915  99
1916  99
1917  77
1918  95
1919  98
1920  86
1921  92
1922  77
1923  99
1924  95
1925  101
1926  85
1927  91
1928  87
1929  92
1930  94
1931  92
1932  103
1933  101
1934  97
1935  91
1936  89
1937  96
1938  83
1939  109
1940  89
1941  89
1942  91
1943  103
1944  95
1945  93
1946  88
1947  87
1948  88
1949  101
1950  77
1951  89
1952  98
1953  79
1954  88
1955  75
1956  83
1957  93
1958  86
1959  79
1960  92
1961  92
1962  103
1963  78
1964  86
1965  91
1966  95
1967  86
1968  97
1969  72
1970  96
1971  92
1972  87
1973  85
1974  91
1975  105
1976  96
1977  91
1978  85
1979  102
1980  104
1981  86
1982  100
1983  87
1984  94
1985  110
1986  96
1987  84
1988  91
1989  89
1990  75
1991  96
1992  88
1993  88
1994  78
1995  79
1996  72
1997  79
1998  90
1999  94
2000  82
2001  104
2002  88
2003  93
2004  86
2005  79
2006  107
2007  100
2008  103
2009  84
2010  97
2011  102
2012  94
2013  90
2014  95
2015  90
2016  71
2017  109
2018  89
2019  89
2020  82
2021  102
2022  80
2023  92
2024  75
2025  92
2026  73
2027  77
2028  90
2029  85
2030  100
2031  94
2032  82
2033  95
2034  81
2035  92
2036  89
2037  93
2038  101
2039  107
2040  93
2041  66
2042  79
2043  122
2044  80
2045  85
2046  76
2047  90
2048  85
2049  108
2050  90
2051  72
2052  90
2053  97
2054  100
2055  82
2056  83
2057  91
2058  70
2059  73
2060  92
2061  79
2062  88
2063  87
2064  85
2065  87
2066  85
2067  105
2068  89
2069  87
2070  91
2071  86
2072  93
2073  88
2074  91
2075  79
2076  98
2077  94
2078  99
2079  98
2080  71
2081  61
2082  90
2083  100
2084  94
2085  94
2086  99
2087  85
2088  86
2089  69
2090  88
2091  96
2092  85
2093  86
2094  96
2095  82
2096  81
2097  78
2098  85
2099  99
2100  94
2101  89
2102  89
2103  85
2104  79
2105  82
2106  76
2107  102
2108  83
2109  82
2110  100
2111  92
2112  67
2113  76
2114  78
2115  82
2116  91
2117  93
2118  91
2119  92
2120  81
2121  85
2122  89
2123  84
2124  92
2125  90
2126  82
2127  85
2128  104
2129  76
2130  76
2131  95
2132  97
2133  102
2134  94
2135  99
2136  92
2137  99
2138  83
2139  103
2140  79
2141  99
2142  94
2143  76
2144  94
2145  68
2146  92
2147  92
2148  95
2149  91
2150  75
2151  98
2152  70
2153  85
2154  80
2155  74
2156  109
2157  92
2158  74
2159  80
2160  87
2161  90
2162  74
2163  83
2164  87
2165  83
2166  95
2167  86
2168  95
2169  97
2170  77
2171  77
2172  96
2173  77
2174  82
2175  75
2176  90
2177  90
2178  89
2179  90
2180  103
2181  87
2182  78
2183  88
2184  76
2185  97
2186  86
2187  88
2188  92
2189  89
2190  83
2191  86
2192  80
2193  75
2194  91
2195  89
2196  84
2197  85
2198  88
2199  94
2200  89
2201  94
2202  65
2203  109
2204  77
2205  103
2206  94
2207  81
2208  88
2209  77
2210  65
2211  89
2212  80
2213  85
2214  91
2215  98
2216  83
2217  91
2218  90
2219  98
2220  98
2221  86
2222  80
2223  76
2224  95
2225  85
2226  88
2227  98
2228  102
2229  81
2230  75
2231  90
2232  68
2233  80
2234  88
2235  96
2236  95
2237  73
2238  92
2239  88
2240  87
2241  65
2242  106
2243  84
2244  80
2245  82
2246  90
2247  93
2248  79
2249  74
2250  73
2251  72
2252  91
2253  96
2254  95
2255  84
2256  91
2257  88
2258  99
2259  89
2260  98
2261  83
2262  91
2263  90
2264  81
2265  99
2266  85
2267  83
2268  74
2269  91
2270  84
2271  94
2272  82
2273  89
2274  82
2275  87
2276  72
2277  84
2278  85
2279  91
2280  92
2281  73
2282  60
2283  79
2284  83
2285  80
2286  74
2287  69
2288  82
2289  76
2290  87
2291  85
2292  83
2293  76
2294  86
2295  83
2296  69
2297  95
2298  85
2299  87
2300  69
2301  68
2302  74
2303  83
2304  75
2305  86
2306  94
2307  92
2308  83
2309  96
2310  86
2311  81
2312  89
2313  77
2314  93
2315  71
2316  71
2317  79
2318  92
2319  85
2320  84
2321  91
2322  94
2323  92
2324  90
2325  72
2326  85
2327  77
2328  80
2329  64
2330  80
2331  73
2332  86
2333  86
2334  81
2335  77
2336  85
2337  67
2338  74
2339  97
2340  85
2341  101
2342  67
2343  85
2344  94
2345  86
2346  80
2347  83
2348  99
2349  80
2350  82
2351  83
2352  87
2353  92
2354  77
2355  91
2356  98
2357  69
2358  75
2359  81
2360  68
2361  83
2362  99
2363  90
2364  85
2365  76
2366  88
2367  88
2368  83
2369  96
2370  78
2371  74
2372  96
2373  66
2374  72
2375  71
2376  81
2377  92
2378  90
2379  100
2380  85
2381  88
2382  80
2383  88
2384  90
2385  64
2386  87
2387  84
2388  75
2389  69
2390  87
2391  92
2392  87
2393  82
2394  86
2395  75
2396  92
2397  116
2398  80
2399  86
2400  84
2401  103
2402  68
2403  78
2404  96
2405  76
2406  82
2407  93
2408  68
2409  75
2410  110
2411  82
2412  74
2413  80
2414  86
2415  99
2416  78
2417  74
2418  114
2419  90
2420  105
2421  89
2422  78
2423  78
2424  77
2425  97
2426  93
2427  72
2428  103
2429  86
2430  102
2431  90
2432  96
2433  91
2434  79
2435  87
2436  78
2437  88
2438  88
2439  86
2440  80
2441  79
2442  73
2443  76
2444  88
2445  98
2446  103
2447  91
2448  84
2449  90
2450  83
2451  85
2452  91
2453  84
2454  86
2455  82
2456  96
2457  97
2458  85
2459  94
2460  93
2461  85
2462  89
2463  84
2464  95
2465  69
2466  102
2467  71
2468  90
2469  85
2470  82
2471  74
2472  89
2473  95
2474  98
2475  77
2476  87
2477  99
2478  83
2479  77
2480  90
2481  82
2482  93
2483  92
2484  86
2485  70
2486  82
2487  110
2488  77
2489  81
2490  124
2491  86
2492  105
2493  64
2494  94
2495  93
2496  86
2497  75
2498  110
2499  94
2500  85
2501  89
2502  74
2503  89
2504  82
2505  81
2506  97
2507  81
2508  77
2509  89
2510  84
2511  86
2512  85
2513  82
2514  95
2515  72
2516  80
2517  80
2518  100
2519  104
2520  95
2521  97
2522  75
2523  72
2524  80
2525  93
2526  86
2527  94
2528  100
2529  87
2530  87
2531  107
2532  86
2533  87
2534  75
2535  94
2536  99
2537  81
2538  79
2539  80
2540  79
2541  82
2542  88
2543  85
2544  74
2545  74
2546  77
2547  96
2548  91
2549  86
2550  84
2551  80
2552  95
2553  81
2554  81
2555  81
2556  89
2557  96
2558  87
2559  82
2560  77
2561  97
2562  85
2563  91
2564  104
2565  93
2566  91
2567  92
2568  95
2569  99
2570  79
2571  88
2572  84
2573  88
2574  81
2575  83
2576  89
2577  89
2578  71
2579  79
2580  92
2581  99
2582  91
2583  91
2584  103
2585  83
2586  90
2587  92
2588  90
2589  82
2590  93
2591  102
2592  95
2593  85
2594  94
2595  107
2596  87
2597  96
2598  89
2599  76
2600  89
2601  89
2602  87
2603  87
2604  97
2605  105
2606  86
2607  90
2608  87
2609  75
2610  100
2611  84
2612  85
2613  103
2614  93
2615  59
2616  89
2617  104
2618  100
2619  76
2620  96
2621  87
2622  79
2623  88
2624  98
2625  101
2626  93
2627  107
2628  99
2629  109
2630  85
2631  109
2632  74
2633  98
2634  84
2635  100
2636  84
2637  101
2638  102
2639  95
2640  98
2641  94
2642  76
2643  89
2644  95
2645  86
2646  103
2647  111
2648  72
2649  91
2650  85
2651  94
2652  82
2653  96
2654  96
2655  96
2656  89
2657  102
2658  83
2659  78
2660  74
2661  81
2662  97
2663  93
2664  86
2665  99
2666  90
2667  78
2668  90
2669  81
2670  88
2671  96
2672  96
2673  101
2674  95
2675  91
2676  95
2677  78
2678  103
2679  64
2680  79
2681  95
2682  104
2683  101
2684  87
2685  89
2686  100
2687  98
2688  92
2689  85
2690  98
2691  98
2692  103
2693  73
2694  89
2695  91
2696  86
2697  91
2698  89
2699  93
2700  102
2701  97
2702  97
2703  98
2704  86
2705  105
2706  106
2707  103
2708  86
2709  85
2710  92
2711  92
2712  91
2713  89
2714  86
2715  93
2716  105
2717  76
2718  105
2719  92
2720  99
2721  96
2722  76
2723  96
2724  84
2725  91
2726  79
2727  85
2728  91
2729  98
2730  96
2731  105
2732  90
2733  85
2734  105
2735  90
2736  96
2737  90
2738  94
2739  95
2740  100
2741  90
2742  89
2743  102
2744  86
2745  99
2746  101
2747  94
2748  89
2749  89
2750  86
2751  87
2752  95
2753  106
2754  95
2755  103
2756  87
2757  91
2758  82
2759  82
2760  95
2761  109
2762  94
2763  82
2764  89
2765  94
2766  83
2767  90
2768  101
2769  87
2770  100
2771  76
2772  99
2773  92
2774  93
2775  99
2776  90
2777  101
2778  102
2779  89
2780  85
2781  98
2782  79
2783  100
2784  86
2785  87
2786  83
2787  101
2788  105
2789  77
2790  94
2791  79
2792  96
2793  83
2794  86
2795  100
2796  82
2797  88
2798  95
2799  98
2800  88
2801  100
2802  103
2803  106
2804  81
2805  85
2806  88
2807  104
2808  93
2809  76
2810  101
2811  83
2812  95
2813  103
2814  104
2815  96
2816  81
2817  88
2818  80
2819  83
2820  82
2821  84
2822  79
2823  97
2824  82
2825  100
2826  97
2827  81
2828  90
2829  95
2830  87
2831  73
2832  90
2833  91
2834  96
2835  93
2836  108
2837  96
2838  78
2839  113
2840  76
2841  92
2842  83
2843  100
2844  83
2845  82
2846  97
2847  86
2848  90
2849  94
2850  88
2851  87
2852  83
2853  70
2854  94
2855  88
2856  91
2857  97
2858  90
2859  88
2860  101
2861  92
2862  109
2863  111
2864  94
2865  77
2866  97
2867  105
2868  95
2869  83
2870  82
2871  100
2872  90
2873  74
2874  94
2875  94
2876  90
2877  91
2878  98
2879  88
2880  84
2881  105
2882  96
2883  104
2884  78
2885  87
2886  88
2887  77
2888  76
2889  72
2890  84
2891  102
2892  96
2893  104
2894  106
2895  106
2896  99
2897  91
2898  107
2899  81
2900  91
2901  87
2902  92
2903  98
2904  105
2905  99
2906  77
2907  103
2908  81
2909  93
2910  73
2911  122
2912  88
2913  88
2914  90
2915  83
2916  100
2917  87
2918  95
2919  87
2920  96
2921  116
2922  83
2923  101
2924  89
2925  78
2926  100
2927  79
2928  78
2929  94
2930  72
2931  88
2932  84
2933  85
2934  91
2935  94
2936  99
2937  102
2938  88
2939  97
2940  71
2941  95
2942  96
2943  87
2944  75
2945  83
2946  99
2947  87
2948  89
2949  84
2950  86
2951  92
2952  91
2953  86
2954  89
2955  80
2956  75
2957  81
2958  72
2959  76
2960  95
2961  90
2962  81
2963  78
2964  85
2965  82
2966  90
2967  77
2968  98
2969  84
2970  91
2971  80
2972  77
2973  98
2974  103
2975  88
2976  77
2977  80
2978  89
2979  84
2980  90
2981  102
2982  81
2983  103
2984  91
2985  97
2986  81
2987  89
2988  87
2989  103
2990  114
2991  84
2992  97
2993  78
2994  88
2995  87
2996  89
2997  87
2998  88
2999  87
3000  102
3001  83
3002  83
3003  104
3004  71
3005  102
3006  95
3007  87
3008  92
3009  79
3010  85
3011  90
3012  91
3013  72
3014  72
3015  79
3016  89
3017  77
3018  92
3019  91
3020  79
3021  71
3022  71
3023  91
3024  82
3025  67
3026  75
3027  89
3028  77
3029  95
3030  65
3031  76
3032  72
3033  89
3034  80
3035  76
3036  89
3037  93
3038  89
3039  87
3040  102
3041  96
3042  79
3043  75
3044  85
3045  89
3046  87
3047  90
3048  101
3049  80
3050  84
3051  95
3052  81
3053  82
3054  79
3055  79
3056  83
3057  71
3058  75
3059  77
3060  96
3061  100
3062  66
3063  98
3064  78
3065  88
3066  82
3067  76
3068  72
3069  79
3070  70
3071  81
3072  70
3073  87
3074  94
3075  60
3076  99
3077  77
3078  80
3079  88
3080  92
3081  81
3082  85
3083  84
3084  101
3085  79
3086  85
3087  88
3088  93
3089  83
3090  74
3091  87
3092  84
3093  86
3094  80
3095  102
3096  82
3097  91
3098  74
3099  90
3100  85
3101  81
3102  83
3103  85
3104  77
3105  85
3106  78
3107  88
3108  83
3109  100
3110  112
3111  79
3112  78
3113  70
3114  92
3115  90
3116  87
3117  100
3118  66
3119  80
3120  88
3121  80
3122  80
3123  82
3124  93
3125  86
3126  81
3127  80
3128  90
3129  84
3130  86
3131  88
3132  78
3133  85
3134  94
3135  75
3136  88
3137  73
3138  92
3139  101
3140  76
3141  69
3142  81
3143  90
3144  62
3145  90
3146  67
3147  90
3148  94
3149  91
3150  86
3151  72
3152  99
3153  85
3154  105
3155  78
3156  92
3157  75
3158  71
3159  102
3160  64
3161  78
3162  78
3163  83
3164  88
3165  101
3166  76
3167  84
3168  94
3169  66
3170  78
3171  96
3172  72
3173  77
3174  85
3175  76
3176  90
3177  77
3178  94
3179  86
3180  82
3181  91
3182  89
3183  104
3184  88
3185  74
3186  72
3187  80
3188  73
3189  98
3190  83
3191  92
3192  96
3193  84
3194  82
3195  71
3196  89
3197  99
3198  86
3199  89
3200  97
3201  89
3202  96
3203  72
3204  88
3205  77
3206  80
3207  87
3208  86
3209  77
3210  75
3211  62
3212  84
3213  81
3214  85
3215  85
3216  73
3217  101
3218  70
3219  83
3220  79
3221  75
3222  84
3223  78
3224  77
3225  75
3226  75
3227  78
3228  79
3229  88
3230  79
3231  81
3232  84
3233  80
3234  87
3235  89
3236  79
3237  79
3238  87
3239  79
3240  97
3241  88
3242  98
3243  91
3244  64
3245  99
3246  83
3247  84
3248  95
3249  84
3250  75
3251  93
3252  87
3253  83
3254  89
3255  86
3256  79
3257  82
3258  101
3259  77
3260  97
3261  92
3262  97
3263  82
3264  73
3265  84
3266  104
3267  83
3268  84
3269  74
3270  90
3271  85
3272  88
3273  92
3274  102
3275  88
3276  104
3277  76
3278  80
3279  92
3280  95
3281  78
3282  94
3283  79
3284  90
3285  78
3286  82
3287  93
3288  80
3289  70
3290  85
3291  75
3292  81
3293  82
3294  86
3295  77
3296  94
3297  83
3298  77
3299  75
3300  95
3301  84
3302  78
3303  77
3304  77
3305  83
3306  99
3307  97
3308  79
3309  77
3310  103
3311  98
3312  86
3313  86
3314  69
3315  93
3316  93
3317  86
3318  100
3319  88
3320  93
3321  89
3322  69
3323  95
3324  83
3325  68
3326  88
3327  78
3328  92
3329  83
3330  88
3331  90
3332  85
3333  89
3334  85
3335  80
3336  94
3337  68
3338  103
3339  103
3340  86
3341  81
3342  78
3343  85
3344  88
3345  84
3346  105
3347  79
3348  100
3349  99
3350  99
3351  82
3352  92
3353  91
3354  102
3355  99
3356  92
3357  80
3358  82
3359  81
3360  109
3361  86
3362  89
3363  99
3364  83
3365  98
3366  98
3367  79
3368  82
3369  87
3370  100
3371  73
3372  102
3373  82
3374  75
3375  88
3376  90
3377  86
3378  104
3379  81
3380  77
3381  79
3382  80
3383  97
3384  87
3385  71
3386  57
3387  94
3388  88
3389  84
3390  73
3391  94
3392  79
3393  85
3394  84
3395  88
3396  89
3397  94
3398  88
3399  79
3400  88
3401  88
3402  106
3403  85
3404  82
3405  97
3406  101
3407  83
3408  76
3409  83
3410  95
3411  96
3412  87
3413  83
3414  83
3415  74
3416  88
3417  92
3418  100
3419  109
3420  98
3421  95
3422  100
3423  91
3424  94
3425  104
3426  99
3427  107
3428  77
3429  109
3430  82
3431  93
3432  89
3433  100
3434  83
3435  66
3436  70
3437  86
3438  103
3439  85
3440  86
3441  88
3442  91
3443  103
3444  81
3445  84
3446  85
3447  91
3448  88
3449  99
3450  79
3451  88
3452  89
3453  90
3454  86
3455  92
3456  92
3457  94
3458  93
3459  88
3460  74
3461  79
3462  106
3463  97
3464  91
3465  98
3466  94
3467  105
3468  68
3469  97
3470  78
3471  97
3472  91
3473  79
3474  85
3475  80
3476  61
3477  74
3478  67
3479  74
3480  60
3481  55
3482  64
3483  29
3484  23
3485  9
3486  7
3487  4
3488  0
3489  0
3490  1
3491  0
3492  0
3493  0
3494  0
3495  0
3496  0
3497  0
3498  0
3499  0
3500  0
3501  0
3502  0
3503  0
3504  0
3505  0
3506  0
3507  0
3508  0
3509  0
3510  0
3511  0
3512  0
3513  0
3514  0
3515  0
3516  0
3517  0
3518  0
3519  0
3520  0
3521  0
3522  0
3523  0
3524  0
3525  0
3526  0
3527  0
3528  0
3529  0
3530  0
3531  0
3532  0
3533  0
3534  0
3535  0
3536  0
3537  0
3538  0
3539  0
3540  0
3541  0
3542  0
3543  0
3544  0
3545  0
3546  0
3547  0
3548  0
3549  0
3550  0
3551  0
3552  0
3553  0
3554  0
3555  0
3556  0
3557  0
3558  0
3559  0
3560  0
3561  0
3562  0
3563  0
3564  0
3565  0
3566  0
3567  0
3568  0
3569  0
3570  0
3571  0
3572  0
3573  0
3574  0
3575  0
3576  0
3577  0
3578  0
3579  0
3580  0
3581  0
3582  0
3583  0
3584  0
3585  0
3586  0
3587  0
3588  0
3589  0
3590  0
3591  0
3592  0
3593  0
3594  0
3595  0
3596  0
3597  0
3598  0
3599  0
3600  0
3601  0
3602  0
3603  0
3604  0
3605  0
3606  0
3607  0
3608  0
3609  0
3610  0
3611  0
3612  0
3613  0
3614  0
3615  0
3616  0
3617  0
3618  0
3619  0
3620  0
3621  0
3622  0
3623  0
3624  0
3625  0
3626  0
3627  0
3628  0
3629  0
3630  0
3631  0
3632  0
3633  0
3634  0
3635  0
3636  0
3637  0
3638  0
3639  0
3640  0
3641  0
3642  0
3643  0
3644  0
3645  0
3646  0
3647  0
3648  0
3649  0
3650  0
3651  0
3652  0
3653  0
3654  0
3655  0
3656  0
3657  0
3658  0
3659  0
3660  0
3661  0
3662  0
3663  0
3664  0
3665  0
3666  0
3667  0
3668  0
3669  0
3670  0
3671  0
3672  0
3673  0
3674  0
3675  0
3676  0
3677  0
3678  0
3679  0
3680  0
3681  0
3682  0
3683  0
3684  0
3685  0
3686  0
3687  0
3688  0
3689  0
3690  0
3691  0
3692  0
3693  0
3694  0
3695  0
3696  0
3697  0
3698  0
3699  0
3700  0
3701  0
3702  0
3703  0
3704  0
3705  0
3706  0
3707  0
3708  0
3709  0
3710  0
3711  0
3712  0
3713  0
3714  0
3715  0
3716  0
3717  0
3718  0
3719  0
3720  0
3721  0
3722  0
3723  0
3724  0
3725  0
3726  0
3727  0
3728  0
3729  0
3730  0
3731  0
3732  0
3733  0
3734  0
3735  0
3736  0
3737  0
3738  0
3739  0
3740  0
3741  0
3742  0
3743  0
3744  0
3745  0
3746  0
3747  0
3748  0
3749  0
3750  0
3751  0
3752  0
3753  0
3754  0
3755  0
3756  0
3757  0
3758  0
3759  0
3760  0
3761  0
3762  0
3763  0
3764  0
3765  0
3766  0
3767  0
3768  0
3769  0
3770  0
3771  0
3772  0
3773  0
3774  0
3775  0
3776  0
3777  0
3778  0
3779  0
3780  0
3781  0
3782  0
3783  0
3784  0
3785  0
3786  0
3787  0
3788  0
3789  0
3790  0
3791  0
3792  0
3793  0
3794  0
3795  0
3796  0
3797  0
3798  0
3799  0
3800  0
3801  0
3802  0
3803  0
3804  0
3805  0
3806  0
3807  0
3808  0
3809  0
3810  0
3811  0
3812  0
3813  0
3814  0
3815  0
3816  0
3817  0
3818  0
3819  0
3820  0
3821  0
3822  0
3823  0
3824  0
3825  0
3826  0
3827  0
3828  0
3829  0
3830  0
3831  0
3832  0
3833  0
3834  0
3835  0
3836  0
3837  0
3838  0
3839  0
3840  0
3841  0
3842  0
3843  0
3844  0
3845  0
3846  0
3847  0
3848  0
3849  0
3850  0
3851  0
3852  0
3853  0
3854  0
3855  0
3856  0
3857  0
3858  0
3859  0
3860  0
3861  0
3862  0
3863  0
3864  0
3865  0
3866  0
3867  0
3868  0
3869  0
3870  0
3871  0
3872  0
3873  0
3874  0
3875  0
3876  0
3877  0
3878  0
3879  0
3880  0
3881  0
3882  0
3883  0
3884  0
3885  0
3886  0
3887  0
3888  0
3889  0
3890  0
3891  0
3892  0
3893  0
3894  0
3895  0
3896  0
3897  0
3898  0
3899  0
3900  0
3901  0
3902  0
3903  0
3904  0
3905  0
3906  0
3907  0
3908  0
3909  0
3910  0
3911  0
3912  0
3913  0
3914  0
3915  0
3916  0
3917  0
3918  0
3919  0
3920  0
3921  0
3922  0
3923  0
3924  0
3925  0
3926  0
3927  0
3928  0
3929  0
3930  0
3931  0
3932  0
3933  0
3934  0
3935  0
3936  0
3937  0
3938  0
3939  0
3940  0
3941  0
3942  0
3943  0
3944  0
3945  0
3946  0
3947  0
3948  0
3949  0
3950  0
3951  0
3952  0
3953  0
3954  0
3955  0
3956  0
3957  0
3958  0
3959  0
3960  0
3961  0
3962  0
3963  0
3964  0
3965  0
3966  0
3967  0
3968  0
3969  0
3970  0
3971  0
3972  0
3973  0
3974  0
3975  0
3976  0
3977  0
3978  0
3979  0
3980  0
3981  0
3982  0
3983  0
3984  0
3985  0
3986  0
3987  0
3988  0
3989  0
3990  0
3991  0
3992  0
3993  0
3994  0
3995  0
3996  0
3997  0
3998  0
3999  0
4000  0
4001  0
4002  0
4003  0
4004  0
4005  0
4006  0
4007  0
4008  0
4009  0
4010  0
4011  0
4012  0
4013  0
4014  0
4015  0
4016  0
4017  0
4018  0
4019  0
4020  0
4021  0
4022  0
4023  0
4024  0
4025  0
4026  0
4027  0
4028  0
4029  0
4030  0
4031  0
4032  0
4033  0
4034  0
4035  0
4036  0
4037  0
4038  0
4039  0
4040  0
4041  0
4042  0
4043  0
4044  0
4045  0
4046  0
4047  0
4048  0
4049  0
4050  0
4051  0
4052  0
4053  0
4054  0
4055  0
4056  0
4057  0
4058  0
4059  0
4060  0
4061  0
4062  0
4063  0
4064  0
4065  0
4066  0
4067  0
4068  0
4069  0
4070  0
4071  0
4072  0
4073  0
4074  0
4075  0
4076  0
4077  0
4078  0
4079  0
4080  0
4081  0
4082  0
4083  0
4084  0
4085  0
4086  0
4087  0
4088  0
4089  0
4090  0
4091  0
4092  0
4093  0
4094  0
4095  0
