0  0
1  0
2  0
3  0
4  0
5  0
6  0
7  0
8  0
9  0
10  0
11  0
12  0
13  0
14  0
15  0
16  0
17  8
18  142
19  633
20  907
21  702
22  313
23  172
24  141
25  148
26  143
27  136
28  154
29  141
30  146
31  171
32  150
33  131
34  134
35  126
36  133
37  113
38  149
39  127
40  123
41  119
42  98
43  78
44  54
45  38
46  22
47  12
48  3
49  2
50  0
51  0
52  0
53  0
54  1
55  0
56  0
57  0
58  0
59  0
60  0
61  0
62  0
63  1
64  0
65  0
66  0
67  0
68  0
69  0
70  0
71  0
72  0
73  0
74  0
75  0
76  0
77  0
78  0
79  0
80  0
81  0
82  0
83  0
84  0
85  0
86  0
87  0
88  0
89  0
90  0
91  0
92  0
93  0
94  0
95  0
96  0
97  0
98  0
99  0
100  0
101  0
102  0
103  0
104  0
105  0
106  0
107  0
108  0
109  0
110  0
111  0
112  0
113  0
114  0
115  0
116  0
117  0
118  0
119  0
120  0
121  0
122  0
123  0
124  0
125  0
126  0
127  0
128  0
129  0
130  0
131  0
132  0
133  0
134  0
135  0
136  0
137  0
138  0
139  0
140  0
141  0
142  0
143  0
144  0
145  0
146  0
147  0
148  0
149  0
150  0
151  0
152  0
153  0
154  0
155  0
156  0
157  0
158  0
159  0
160  0
161  0
162  0
163  0
164  0
165  0
166  0
167  0
168  0
169  0
170  0
171  0
172  0
173  0
174  0
175  0
176  0
177  0
178  0
179  74
180  907
181  2353
182  2784
183  2601
184  5067
185  10225
186  12014
187  8697
188  4732
189  2790
190  2003
191  1683
192  1443
193  1280
194  1142
195  1067
196  1072
197  1037
198  1006
199  1020
200  954
201  1034
202  1040
203  1026
204  1029
205  1001
206  1054
207  1028
208  1022
209  980
210  948
211  967
212  989
213  995
214  1017
215  954
216  1023
217  1014
218  1029
219  957
220  984
221  969
222  1018
223  960
224  932
225  959
226  990
227  922
228  990
229  937
230  995
231  987
232  945
233  966
234  976
235  996
236  949
237  951
238  930
239  975
240  1035
241  929
242  967
243  954
244  946
245  949
246  936
247  939
248  1010
249  1011
250  970
251  989
252  953
253  960
254  959
255  983
256  949
257  936
258  946
259  965
260  970
261  957
262  922
263  932
264  953
265  1024
266  984
267  985
268  1005
269  912
270  956
271  931
272  938
273  978
274  977
275  923
276  1008
277  1009
278  990
279  959
280  918
281  935
282  949
283  964
284  994
285  967
286  980
287  969
288  970
289  941
290  980
291  950
292  942
293  927
294  1016
295  955
296  1001
297  1006
298  982
299  938
300  971
301  984
302  961
303  922
304  1003
305  969
306  1030
307  969
308  986
309  982
310  993
311  1005
312  950
313  976
314  990
315  1023
316  992
317  963
318  956
319  992
320  995
321  1018
322  965
323  939
324  995
325  1023
326  998
327  1000
328  951
329  1019
330  1025
331  1020
332  1030
333  960
334  965
335  1000
336  1013
337  979
338  979
339  990
340  975
341  940
342  980
343  993
344  940
345  930
346  1041
347  993
348  953
349  990
350  982
351  944
352  960
353  980
354  1022
355  1025
356  996
357  998
358  919
359  1015
360  1039
361  1001
362  965
363  960
364  1002
365  988
366  937
367  1051
368  923
369  981
370  952
371  991
372  983
373  1021
374  1033
375  988
376  890
377  963
378  989
379  1008
380  986
381  937
382  962
383  904
384  945
385  960
386  997
387  945
388  979
389  999
390  933
391  994
392  963
393  943
394  950
395  946
396  1002
397  998
398  963
399  938
400  1005
401  998
402  1003
403  957
404  956
405  971
406  1025
407  959
408  989
409  993
410  949
411  929
412  941
413  1021
414  1062
415  933
416  958
417  995
418  935
419  966
420  969
421  929
422  980
423  922
424  968
425  1015
426  962
427  955
428  931
429  968
430  987
431  967
432  1008
433  1018
434  963
435  973
436  965
437  973
438  993
439  975
440  992
441  984
442  917
443  957
444  1008
445  953
446  995
447  1016
448  962
449  930
450  961
451  1012
452  965
453  934
454  1014
455  991
456  943
457  951
458  990
459  940
460  922
461  975
462  952
463  1018
464  947
465  991
466  963
467  962
468  1009
469  952
470  968
471  968
472  975
473  941
474  977
475  913
476  990
477  944
478  959
479  994
480  969
481  1000
482  941
483  933
484  946
485  915
486  1014
487  982
488  895
489  991
490  1007
491  1005
492  948
493  966
494  960
495  918
496  916
497  958
498  956
499  950
500  968
501  1033
502  919
503  941
504  987
505  972
506  1037
507  965
508  993
509  1010
510  958
511  938
512  969
513  1014
514  1004
515  950
516  946
517  1003
518  961
519  956
520  1009
521  981
522  944
523  981
524  936
525  885
526  926
527  911
528  906
529  1007
530  936
531  944
532  911
533  960
534  986
535  948
536  943
537  961
538  944
539  955
540  971
541  944
542  976
543  957
544  931
545  1009
546  929
547  1008
548  949
549  1033
550  950
551  938
552  1000
553  959
554  972
555  1008
556  983
557  969
558  968
559  911
560  950
561  912
562  957
563  983
564  931
565  969
566  959
567  963
568  921
569  923
570  966
571  997
572  953
573  968
574  989
575  941
576  905
577  948
578  953
579  966
580  945
581  974
582  982
583  932
584  985
585  954
586  974
587  915
588  905
589  929
590  973
591  1012
592  912
593  966
594  932
595  929
596  921
597  934
598  913
599  955
600  954
601  943
602  970
603  894
604  923
605  908
606  882
607  923
608  932
609  973
610  899
611  912
612  903
613  957
614  925
615  932
616  909
617  934
618  920
619  922
620  903
621  1001
622  938
623  1002
624  999
625  918
626  971
627  981
628  923
629  912
630  945
631  938
632  958
633  930
634  986
635  940
636  937
637  899
638  917
639  928
640  935
641  918
642  977
643  962
644  942
645  932
646  936
647  947
648  967
649  937
650  933
651  982
652  939
653  975
654  901
655  964
656  936
657  920
658  914
659  935
660  964
661  975
662  940
663  932
664  957
665  944
666  931
667  925
668  953
669  920
670  936
671  936
672  922
673  909
674  910
675  984
676  942
677  905
678  889
679  996
680  915
681  926
682  967
683  933
684  897
685  960
686  933
687  916
688  927
689  863
690  952
691  915
692  924
693  921
694  970
695  911
696  940
697  973
698  912
699  953
700  907
701  915
702  892
703  874
704  910
705  909
706  889
707  935
708  955
709  936
710  944
711  952
712  948
713  938
714  899
715  993
716  869
717  939
718  935
719  934
720  929
721  886
722  938
723  922
724  883
725  919
726  928
727  952
728  943
729  930
730  949
731  958
732  961
733  915
734  929
735  958
736  930
737  960
738  894
739  952
740  933
741  955
742  925
743  938
744  930
745  929
746  960
747  934
748  896
749  966
750  958
751  900
752  999
753  902
754  910
755  933
756  939
757  963
758  982
759  917
760  874
761  911
762  873
763  912
764  957
765  885
766  924
767  919
768  908
769  904
770  869
771  924
772  893
773  890
774  925
775  909
776  934
777  932
778  945
779  954
780  929
781  961
782  971
783  937
784  864
785  953
786  903
787  910
788  939
789  940
790  949
791  938
792  977
793  951
794  907
795  887
796  954
797  941
798  985
799  886
800  898
801  971
802  875
803  892
804  910
805  912
806  920
807  888
808  975
809  948
810  912
811  979
812  961
813  960
814  937
815  917
816  950
817  936
818  916
819  928
820  921
821  919
822  929
823  943
824  925
825  953
826  955
827  896
828  894
829  914
830  968
831  980
832  924
833  984
834  914
835  887
836  919
837  937
838  937
839  907
840  892
841  948
842  908
843  956
844  921
845  911
846  955
847  924
848  951
849  957
850  912
851  887
852  909
853  870
854  887
855  884
856  944
857  950
858  925
859  931
860  930
861  915
862  915
863  909
864  906
865  913
866  883
867  936
868  967
869  940
870  914
871  975
872  913
873  959
874  1000
875  909
876  896
877  940
878  893
879  923
880  945
881  892
882  858
883  907
884  912
885  880
886  923
887  912
888  909
889  896
890  963
891  924
892  907
893  945
894  964
895  871
896  978
897  927
898  905
899  985
900  926
901  947
902  925
903  867
904  919
905  908
906  872
907  943
908  901
909  985
910  961
911  955
912  939
913  957
914  922
915  956
916  938
917  883
918  906
919  901
920  926
921  904
922  878
923  925
924  901
925  937
926  997
927  941
928  928
929  916
930  1010
931  943
932  923
933  907
934  890
935  937
936  960
937  884
938  952
939  928
940  929
941  954
942  932
943  871
944  894
945  936
946  954
947  944
948  958
949  937
950  948
951  889
952  929
953  916
954  931
955  927
956  971
957  971
958  910
959  995
960  833
961  926
962  952
963  922
964  927
965  989
966  960
967  967
968  952
969  882
970  874
971  977
972  943
973  945
974  951
975  923
976  937
977  969
978  950
979  997
980  935
981  980
982  915
983  969
984  957
985  878
986  939
987  968
988  953
989  928
990  987
991  930
992  970
993  1016
994  936
995  935
996  927
997  922
998  953
999  916
1000  920
1001  895
1002  972
1003  957
1004  918
1005  944
1006  961
1007  934
1008  932
1009  995
1010  938
1011  946
1012  931
1013  1010
1014  1002
1015  943
1016  965
1017  970
1018  953
1019  978
1020  899
1021  918
1022  930
1023  919
1024  935
1025  930
1026  940
1027  941
1028  945
1029  955
1030  986
1031  954
1032  899
1033  946
1034  955
1035  934
1036  921
1037  941
1038  1012
1039  969
1040  985
1041  981
1042  976
1043  943
1044  892
1045  950
1046  983
1047  951
1048  962
1049  898
1050  925
1051  965
1052  986
1053  976
1054  965
1055  974
1056  926
1057  923
1058  938
1059  934
1060  909
1061  906
1062  957
1063  950
1064  937
1065  929
1066  941
1067  980
1068  944
1069  927
1070  938
1071  944
1072  998
1073  937
1074  981
1075  952
1076  908
1077  963
1078  963
1079  940
1080  904
1081  889
1082  951
1083  883
1084  925
1085  937
1086  921
1087  963
1088  938
1089  965
1090  961
1091  963
1092  952
1093  927
1094  949
1095  905
1096  959
1097  961
1098  953
1099  944
1100  915
1101  931
1102  978
1103  911
1104  1009
1105  905
1106  903
1107  994
1108  953
1109  996
1110  1022
1111  950
1112  886
1113  896
1114  982
1115  986
1116  1046
1117  953
1118  966
1119  982
1120  936
1121  939
1122  974
1123  989
1124  974
1125  909
1126  928
1127  907
1128  905
1129  939
1130  926
1131  868
1132  935
1133  941
1134  952
1135  939
1136  999
1137  970
1138  943
1139  941
1140  973
1141  961
1142  894
1143  909
1144  954
1145  909
1146  940
1147  959
1148  949
1149  961
1150  931
1151  976
1152  944
1153  845
1154  884
1155  924
1156  933
1157  960
1158  933
1159  904
1160  931
1161  917
1162  948
1163  989
1164  917
1165  960
1166  970
1167  934
1168  923
1169  907
1170  901
1171  944
1172  915
1173  953
1174  928
1175  943
1176  976
1177  967
1178  912
1179  954
1180  900
1181  906
1182  974
1183  964
1184  916
1185  869
1186  928
1187  966
1188  921
1189  937
1190  926
1191  945
1192  980
1193  899
1194  959
1195  965
1196  971
1197  979
1198  937
1199  958
1200  904
1201  961
1202  935
1203  971
1204  950
1205  958
1206  968
1207  896
1208  956
1209  947
1210  941
1211  898
1212  915
1213  938
1214  934
1215  919
1216  997
1217  932
1218  985
1219  944
1220  891
1221  869
1222  976
1223  916
1224  935
1225  916
1226  867
1227  997
1228  901
1229  942
1230  954
1231  921
1232  923
1233  930
1234  894
1235  952
1236  920
1237  951
1238  877
1239  895
1240  893
1241  913
1242  967
1243  950
1244  874
1245  955
1246  901
1247  900
1248  886
1249  867
1250  924
1251  897
1252  869
1253  921
1254  920
1255  916
1256  972
1257  911
1258  896
1259  952
1260  937
1261  947
1262  931
1263  872
1264  905
1265  919
1266  963
1267  947
1268  938
1269  920
1270  923
1271  900
1272  836
1273  944
1274  927
1275  899
1276  968
1277  908
1278  947
1279  924
1280  914
1281  902
1282  872
1283  926
1284  930
1285  906
1286  924
1287  946
1288  946
1289  891
1290  881
1291  917
1292  916
1293  881
1294  919
1295  920
1296  924
1297  886
1298  869
1299  964
1300  948
1301  878
1302  917
1303  902
1304  908
1305  872
1306  924
1307  866
1308  886
1309  863
1310  867
1311  866
1312  962
1313  902
1314  888
1315  955
1316  883
1317  862
1318  861
1319  945
1320  905
1321  894
1322  887
1323  898
1324  857
1325  912
1326  845
1327  875
1328  870
1329  863
1330  900
1331  904
1332  837
1333  839
1334  892
1335  926
1336  876
1337  896
1338  835
1339  843
1340  873
1341  865
1342  897
1343  904
1344  859
1345  906
1346  905
1347  849
1348  906
1349  893
1350  918
1351  913
1352  877
1353  896
1354  810
1355  914
1356  893
1357  903
1358  863
1359  916
1360  884
1361  823
1362  851
1363  888
1364  850
1365  819
1366  904
1367  877
1368  841
1369  901
1370  942
1371  861
1372  880
1373  888
1374  864
1375  873
1376  840
1377  887
1378  833
1379  872
1380  893
1381  858
1382  897
1383  914
1384  886
1385  860
1386  859
1387  922
1388  894
1389  854
1390  914
1391  852
1392  842
1393  887
1394  895
1395  886
1396  847
1397  896
1398  904
1399  876
1400  908
1401  884
1402  905
1403  903
1404  881
1405  881
1406  861
1407  887
1408  936
1409  876
1410  869
1411  897
1412  893
1413  857
1414  878
1415  899
1416  864
1417  878
1418  879
1419  874
1420  857
1421  869
1422  844
1423  859
1424  892
1425  852
1426  876
1427  859
1428  900
1429  889
1430  877
1431  882
1432  883
1433  844
1434  874
1435  872
1436  860
1437  884
1438  857
1439  843
1440  891
1441  857
1442  875
1443  797
1444  902
1445  868
1446  858
1447  868
1448  880
1449  882
1450  848
1451  869
1452  883
1453  837
1454  862
1455  912
1456  860
1457  874
1458  893
1459  895
1460  876
1461  902
1462  868
1463  907
1464  845
1465  866
1466  832
1467  853
1468  825
1469  824
1470  889
1471  821
1472  867
1473  836
1474  890
1475  850
1476  858
1477  894
1478  859
1479  870
1480  847
1481  860
1482  864
1483  814
1484  860
1485  909
1486  859
1487  901
1488  889
1489  812
1490  887
1491  857
1492  900
1493  862
1494  819
1495  805
1496  877
1497  846
1498  840
1499  872
1500  893
1501  862
1502  832
1503  829
1504  894
1505  849
1506  880
1507  865
1508  890
1509  936
1510  878
1511  862
1512  886
1513  893
1514  911
1515  874
1516  887
1517  825
1518  855
1519  867
1520  848
1521  832
1522  805
1523  889
1524  877
1525  866
1526  906
1527  867
1528  900
1529  854
1530  827
1531  922
1532  829
1533  855
1534  868
1535  872
1536  858
1537  891
1538  854
1539  884
1540  832
1541  834
1542  890
1543  873
1544  905
1545  893
1546  890
1547  800
1548  845
1549  868
1550  853
1551  848
1552  845
1553  938
1554  893
1555  863
1556  888
1557  887
1558  868
1559  904
1560  876
1561  864
1562  881
1563  880
1564  859
1565  911
1566  861
1567  888
1568  836
1569  907
1570  876
1571  857
1572  931
1573  908
1574  875
1575  908
1576  894
1577  846
1578  914
1579  926
1580  902
1581  869
1582  927
1583  900
1584  893
1585  914
1586  878
1587  905
1588  831
1589  897
1590  897
1591  863
1592  910
1593  899
1594  865
1595  894
1596  893
1597  882
1598  911
1599  909
1600  862
1601  833
1602  950
1603  926
1604  853
1605  882
1606  858
1607  966
1608  897
1609  923
1610  890
1611  847
1612  897
1613  930
1614  923
1615  878
1616  935
1617  951
1618  876
1619  864
1620  932
1621  867
1622  900
1623  883
1624  887
1625  906
1626  867
1627  961
1628  970
1629  896
1630  881
1631  916
1632  916
1633  883
1634  982
1635  909
1636  888
1637  903
1638  888
1639  915
1640  905
1641  880
1642  908
1643  832
1644  905
1645  854
1646  883
1647  925
1648  941
1649  837
1650  921
1651  967
1652  836
1653  935
1654  936
1655  920
1656  879
1657  946
1658  916
1659  920
1660  901
1661  843
1662  905
1663  904
1664  937
1665  913
1666  955
1667  941
1668  930
1669  927
1670  923
1671  906
1672  899
1673  912
1674  923
1675  897
1676  872
1677  853
1678  940
1679  894
1680  930
1681  940
1682  928
1683  963
1684  913
1685  934
1686  929
1687  926
1688  946
1689  939
1690  925
1691  892
1692  954
1693  884
1694  897
1695  916
1696  935
1697  901
1698  969
1699  937
1700  898
1701  910
1702  913
1703  848
1704  930
1705  924
1706  929
1707  906
1708  920
1709  906
1710  963
1711  935
1712  900
1713  951
1714  888
1715  898
1716  947
1717  937
1718  898
1719  880
1720  906
1721  935
1722  942
1723  887
1724  915
1725  977
1726  902
1727  924
1728  872
1729  884
1730  865
1731  935
1732  919
1733  909
1734  963
1735  956
1736  892
1737  897
1738  913
1739  955
1740  917
1741  958
1742  909
1743  947
1744  922
1745  909
1746  929
1747  930
1748  899
1749  932
1750  948
1751  944
1752  926
1753  891
1754  954
1755  961
1756  930
1757  915
1758  904
1759  946
1760  921
1761  958
1762  895
1763  886
1764  965
1765  950
1766  936
1767  916
1768  923
1769  958
1770  998
1771  916
1772  942
1773  967
1774  919
1775  862
1776  915
1777  914
1778  927
1779  948
1780  949
1781  949
1782  949
1783  954
1784  869
1785  1007
1786  867
1787  924
1788  945
1789  940
1790  938
1791  945
1792  979
1793  933
1794  932
1795  907
1796  985
1797  983
1798  906
1799  955
1800  966
1801  957
1802  901
1803  919
1804  949
1805  900
1806  961
1807  897
1808  951
1809  933
1810  973
1811  898
1812  958
1813  973
1814  1001
1815  919
1816  887
1817  919
1818  981
1819  931
1820  1001
1821  974
1822  963
1823  929
1824  929
1825  976
1826  951
1827  990
1828  963
1829  941
1830  916
1831  991
1832  931
1833  915
1834  931
1835  948
1836  947
1837  953
1838  922
1839  921
1840  991
1841  983
1842  966
1843  907
1844  907
1845  879
1846  942
1847  987
1848  897
1849  966
1850  937
1851  958
1852  893
1853  967
1854  914
1855  972
1856  961
1857  934
1858  976
1859  984
1860  949
1861  983
1862  957
1863  932
1864  925
1865  941
1866  958
1867  926
1868  963
1869  977
1870  906
1871  949
1872  986
1873  928
1874  988
1875  907
1876  1028
1877  986
1878  901
1879  934
1880  1030
1881  1022
1882  969
1883  1027
1884  983
1885  980
1886  919
1887  888
1888  947
1889  948
1890  895
1891  968
1892  926
1893  977
1894  968
1895  942
1896  976
1897  968
1898  933
1899  946
1900  880
1901  967
1902  922
1903  1043
1904  939
1905  919
1906  982
1907  899
1908  938
1909  896
1910  964
1911  946
1912  948
1913  974
1914  957
1915  981
1916  1019
1917  897
1918  945
1919  955
1920  947
1921  960
1922  913
1923  968
1924  959
1925  939
1926  930
1927  963
1928  914
1929  982
1930  931
1931  954
1932  919
1933  973
1934  965
1935  967
1936  965
1937  988
1938  935
1939  978
1940  953
1941  958
1942  911
1943  989
1944  935
1945  939
1946  922
1947  892
1948  976
1949  946
1950  904
1951  939
1952  920
1953  949
1954  958
1955  913
1956  980
1957  966
1958  956
1959  953
1960  943
1961  926
1962  952
1963  954
1964  937
1965  995
1966  986
1967  983
1968  972
1969  931
1970  949
1971  912
1972  937
1973  914
1974  943
1975  969
1976  907
1977  931
1978  925
1979  923
1980  974
1981  948
1982  967
1983  945
1984  986
1985  952
1986  914
1987  938
1988  903
1989  1000
1990  890
1991  902
1992  927
1993  972
1994  924
1995  907
1996  931
1997  891
1998  913
1999  929
2000  957
2001  928
2002  979
2003  871
2004  970
2005  891
2006  985
2007  989
2008  926
2009  911
2010  956
2011  956
2012  937
2013  870
2014  966
2015  962
2016  910
2017  910
2018  957
2019  934
2020  925
2021  991
2022  914
2023  955
2024  914
2025  899
2026  898
2027  935
2028  984
2029  957
2030  937
2031  951
2032  934
2033  909
2034  917
2035  955
2036  925
2037  906
2038  957
2039  927
2040  980
2041  904
2042  899
2043  951
2044  910
2045  961
2046  919
2047  940
2048  913
2049  956
2050  917
2051  846
2052  963
2053  916
2054  905
2055  896
2056  979
2057  909
2058  914
2059  879
2060  958
2061  927
2062  954
2063  939
2064  912
2065  967
2066  964
2067  976
2068  854
2069  879
2070  856
2071  875
2072  954
2073  879
2074  913
2075  920
2076  931
2077  915
2078  969
2079  955
2080  886
2081  856
2082  944
2083  915
2084  972
2085  874
2086  972
2087  954
2088  928
2089  814
2090  943
2091  881
2092  874
2093  909
2094  912
2095  889
2096  935
2097  895
2098  862
2099  930
2100  911
2101  913
2102  909
2103  927
2104  856
2105  870
2106  876
2107  960
2108  938
2109  911
2110  869
2111  911
2112  870
2113  860
2114  887
2115  922
2116  965
2117  915
2118  945
2119  901
2120  897
2121  928
2122  948
2123  926
2124  958
2125  934
2126  893
2127  890
2128  927
2129  869
2130  908
2131  926
2132  909
2133  920
2134  843
2135  938
2136  962
2137  901
2138  941
2139  956
2140  871
2141  932
2142  893
2143  874
2144  878
2145  870
2146  920
2147  918
2148  897
2149  945
2150  860
2151  910
2152  857
2153  915
2154  865
2155  891
2156  859
2157  902
2158  860
2159  913
2160  879
2161  956
2162  899
2163  905
2164  883
2165  917
2166  857
2167  899
2168  910
2169  877
2170  912
2171  874
2172  927
2173  873
2174  905
2175  905
2176  901
2177  920
2178  882
2179  940
2180  938
2181  946
2182  842
2183  895
2184  855
2185  891
2186  944
2187  842
2188  900
2189  886
2190  873
2191  910
2192  840
2193  906
2194  873
2195  892
2196  897
2197  913
2198  916
2199  881
2200  866
2201  932
2202  874
2203  971
2204  915
2205  891
2206  907
2207  881
2208  888
2209  922
2210  855
2211  906
2212  893
2213  867
2214  837
2215  901
2216  882
2217  868
2218  871
2219  900
2220  906
2221  874
2222  843
2223  851
2224  851
2225  869
2226  892
2227  906
2228  834
2229  843
2230  814
2231  897
2232  847
2233  823
2234  875
2235  914
2236  930
2237  880
2238  883
2239  873
2240  855
2241  857
2242  895
2243  883
2244  870
2245  886
2246  901
2247  859
2248  846
2249  828
2250  833
2251  810
2252  882
2253  863
2254  891
2255  889
2256  859
2257  845
2258  862
2259  871
2260  865
2261  860
2262  924
2263  889
2264  882
2265  860
2266  823
2267  817
2268  839
2269  893
2270  831
2271  824
2272  867
2273  902
2274  880
2275  890
2276  809
2277  863
2278  860
2279  849
2280  905
2281  862
2282  828
2283  904
2284  840
2285  887
2286  899
2287  858
2288  875
2289  830
2290  824
2291  877
2292  854
2293  845
2294  895
2295  849
2296  901
2297  911
2298  855
2299  867
2300  859
2301  851
2302  852
2303  884
2304  879
2305  868
2306  846
2307  863
2308  865
2309  828
2310  878
2311  833
2312  851
2313  863
2314  869
2315  873
2316  839
2317  907
2318  832
2319  865
2320  875
2321  861
2322  895
2323  906
2324  867
2325  878
2326  901
2327  865
2328  853
2329  841
2330  868
2331  884
2332  903
2333  903
2334  811
2335  903
2336  822
2337  862
2338  899
2339  881
2340  885
2341  866
2342  832
2343  854
2344  852
2345  901
2346  861
2347  858
2348  968
2349  850
2350  813
2351  856
2352  833
2353  875
2354  886
2355  801
2356  871
2357  822
2358  817
2359  872
2360  829
2361  884
2362  904
2363  850
2364  876
2365  881
2366  880
2367  816
2368  913
2369  888
2370  826
2371  887
2372  888
2373  814
2374  849
2375  844
2376  887
2377  870
2378  856
2379  879
2380  830
2381  867
2382  843
2383  873
2384  889
2385  825
2386  912
2387  902
2388  856
2389  817
2390  868
2391  865
2392  881
2393  915
2394  888
2395  876
2396  881
2397  927
2398  851
2399  885
2400  906
2401  893
2402  880
2403  866
2404  871
2405  912
2406  878
2407  901
2408  871
2409  864
2410  926
2411  863
2412  831
2413  846
2414  845
2415  909
2416  909
2417  870
2418  952
2419  856
2420  953
2421  865
2422  874
2423  832
2424  924
2425  894
2426  936
2427  821
2428  906
2429  866
2430  915
2431  923
2432  914
2433  920
2434  862
2435  861
2436  874
2437  874
2438  856
2439  941
2440  877
2441  877
2442  875
2443  919
2444  865
2445  920
2446  879
2447  858
2448  909
2449  861
2450  866
2451  907
2452  895
2453  880
2454  921
2455  925
2456  885
2457  887
2458  894
2459  873
2460  900
2461  913
2462  886
2463  908
2464  911
2465  928
2466  884
2467  911
2468  886
2469  851
2470  971
2471  853
2472  906
2473  902
2474  873
2475  939
2476  887
2477  932
2478  876
2479  899
2480  928
2481  847
2482  924
2483  938
2484  877
2485  887
2486  853
2487  890
2488  892
2489  937
2490  958
2491  877
2492  910
2493  845
2494  877
2495  884
2496  903
2497  840
2498  948
2499  918
2500  900
2501  876
2502  909
2503  950
2504  913
2505  903
2506  971
2507  892
2508  902
2509  922
2510  874
2511  952
2512  858
2513  943
2514  911
2515  985
2516  934
2517  905
2518  927
2519  965
2520  921
2521  869
2522  915
2523  901
2524  925
2525  909
2526  898
2527  900
2528  937
2529  915
2530  893
2531  970
2532  911
2533  857
2534  856
2535  933
2536  943
2537  911
2538  967
2539  960
2540  874
2541  851
2542  844
2543  911
2544  883
2545  928
2546  885
2547  926
2548  927
2549  824
2550  932
2551  923
2552  881
2553  906
2554  926
2555  868
2556  911
2557  958
2558  938
2559  922
2560  951
2561  958
2562  949
2563  899
2564  949
2565  947
2566  929
2567  932
2568  945
2569  856
2570  890
2571  982
2572  928
2573  953
2574  877
2575  959
2576  895
2577  979
2578  942
2579  1003
2580  874
2581  970
2582  944
2583  890
2584  928
2585  962
2586  945
2587  969
2588  926
2589  896
2590  927
2591  966
2592  901
2593  923
2594  971
2595  962
2596  890
2597  893
2598  872
2599  939
2600  937
2601  975
2602  927
2603  917
2604  888
2605  1016
2606  952
2607  935
2608  920
2609  943
2610  975
2611  933
2612  941
2613  926
2614  956
2615  924
2616  886
2617  979
2618  921
2619  937
2620  909
2621  911
2622  896
2623  964
2624  934
2625  933
2626  951
2627  937
2628  1000
2629  943
2630  920
2631  944
2632  894
2633  921
2634  943
2635  929
2636  951
2637  951
2638  960
2639  916
2640  920
2641  980
2642  926
2643  940
2644  914
2645  959
2646  931
2647  963
2648  908
2649  976
2650  931
2651  938
2652  926
2653  993
2654  967
2655  986
2656  948
2657  993
2658  937
2659  867
2660  906
2661  931
2662  942
2663  923
2664  903
2665  977
2666  920
2667  933
2668  967
2669  944
2670  882
2671  916
2672  941
2673  938
2674  1021
2675  951
2676  990
2677  920
2678  950
2679  890
2680  946
2681  946
2682  991
2683  1015
2684  970
2685  959
2686  953
2687  919
2688  952
2689  895
2690  1025
2691  956
2692  1009
2693  923
2694  961
2695  910
2696  956
2697  906
2698  957
2699  952
2700  960
2701  954
2702  909
2703  952
2704  959
2705  972
2706  968
2707  1005
2708  934
2709  920
2710  974
2711  944
2712  905
2713  896
2714  876
2715  986
2716  993
2717  943
2718  970
2719  926
2720  958
2721  1008
2722  925
2723  959
2724  971
2725  974
2726  1004
2727  978
2728  943
2729  939
2730  972
2731  955
2732  934
2733  886
2734  960
2735  1009
2736  940
2737  967
2738  939
2739  994
2740  929
2741  966
2742  930
2743  1002
2744  924
2745  1002
2746  946
2747  966
2748  932
2749  948
2750  924
2751  931
2752  959
2753  1014
2754  874
2755  929
2756  966
2757  918
2758  925
2759  927
2760  968
2761  975
2762  922
2763  923
2764  990
2765  947
2766  968
2767  956
2768  1017
2769  987
2770  1023
2771  899
2772  984
2773  890
2774  934
2775  976
2776  979
2777  948
2778  953
2779  896
2780  941
2781  923
2782  935
2783  941
2784  908
2785  954
2786  924
2787  951
2788  925
2789  932
2790  956
2791  934
2792  945
2793  946
2794  934
2795  985
2796  941
2797  983
2798  912
2799  932
2800  1002
2801  947
2802  963
2803  1004
2804  960
2805  945
2806  968
2807  944
2808  1002
2809  937
2810  1014
2811  928
2812  951
2813  923
2814  969
2815  936
2816  970
2817  924
2818  980
2819  884
2820  929
2821  937
2822  949
2823  930
2824  891
2825  950
2826  954
2827  992
2828  974
2829  955
2830  981
2831  921
2832  946
2833  934
2834  927
2835  950
2836  968
2837  976
2838  905
2839  962
2840  914
2841  923
2842  891
2843  986
2844  873
2845  895
2846  972
2847  894
2848  947
2849  938
2850  923
2851  869
2852  888
2853  952
2854  992
2855  979
2856  921
2857  934
2858  924
2859  948
2860  896
2861  1026
2862  871
2863  909
2864  933
2865  922
2866  943
2867  917
2868  960
2869  912
2870  880
2871  997
2872  892
2873  901
2874  955
2875  938
2876  897
2877  923
2878  951
2879  895
2880  967
2881  948
2882  869
2883  929
2884  896
2885  918
2886  912
2887  938
2888  863
2889  925
2890  908
2891  951
2892  980
2893  986
2894  937
2895  956
2896  879
2897  878
2898  932
2899  899
2900  953
2901  859
2902  911
2903  918
2904  1016
2905  954
2906  875
2907  932
2908  873
2909  928
2910  954
2911  966
2912  960
2913  968
2914  926
2915  877
2916  902
2917  975
2918  899
2919  907
2920  939
2921  955
2922  892
2923  914
2924  929
2925  876
2926  910
2927  920
2928  901
2929  908
2930  929
2931  904
2932  860
2933  863
2934  907
2935  885
2936  900
2937  916
2938  889
2939  914
2940  900
2941  980
2942  882
2943  952
2944  890
2945  907
2946  896
2947  905
2948  876
2949  961
2950  887
2951  848
2952  884
2953  979
2954  909
2955  887
2956  886
2957  887
2958  872
2959  849
2960  908
2961  929
2962  947
2963  919
2964  888
2965  888
2966  925
2967  894
2968  885
2969  885
2970  927
2971  932
2972  873
2973  897
2974  928
2975  940
2976  907
2977  865
2978  913
2979  912
2980  953
2981  897
2982  847
2983  914
2984  951
2985  931
2986  898
2987  927
2988  935
2989  946
2990  891
2991  887
2992  921
2993  879
2994  860
2995  929
2996  931
2997  880
2998  914
2999  888
3000  870
3001  910
3002  861
3003  890
3004  923
3005  911
3006  891
3007  874
3008  869
3009  826
3010  911
3011  880
3012  906
3013  909
3014  842
3015  908
3016  855
3017  912
3018  961
3019  917
3020  924
3021  815
3022  880
3023  896
3024  875
3025  879
3026  892
3027  883
3028  917
3029  922
3030  839
3031  859
3032  843
3033  904
3034  891
3035  911
3036  836
3037  910
3038  906
3039  929
3040  918
3041  876
3042  914
3043  856
3044  843
3045  873
3046  886
3047  893
3048  902
3049  846
3050  857
3051  911
3052  877
3053  914
3054  874
3055  901
3056  848
3057  869
3058  837
3059  864
3060  930
3061  866
3062  850
3063  889
3064  836
3065  873
3066  892
3067  852
3068  880
3069  917
3070  902
3071  919
3072  823
3073  868
3074  909
3075  855
3076  878
3077  889
3078  834
3079  871
3080  875
3081  873
3082  932
3083  859
3084  924
3085  894
3086  854
3087  825
3088  832
3089  840
3090  888
3091  862
3092  892
3093  851
3094  862
3095  901
3096  881
3097  865
3098  858
3099  837
3100  901
3101  902
3102  862
3103  815
3104  897
3105  879
3106  896
3107  844
3108  896
3109  915
3110  911
3111  848
3112  911
3113  836
3114  855
3115  888
3116  849
3117  833
3118  797
3119  883
3120  856
3121  807
3122  803
3123  826
3124  882
3125  876
3126  845
3127  939
3128  893
3129  873
3130  863
3131  820
3132  884
3133  867
3134  892
3135  881
3136  918
3137  840
3138  802
3139  896
3140  875
3141  882
3142  896
3143  862
3144  846
3145  910
3146  813
3147  936
3148  851
3149  827
3150  877
3151  857
3152  913
3153  828
3154  898
3155  816
3156  908
3157  804
3158  804
3159  859
3160  879
3161  852
3162  849
3163  915
3164  878
3165  880
3166  806
3167  897
3168  836
3169  821
3170  840
3171  890
3172  798
3173  832
3174  842
3175  818
3176  923
3177  827
3178  869
3179  859
3180  789
3181  918
3182  858
3183  909
3184  872
3185  879
3186  874
3187  850
3188  799
3189  899
3190  824
3191  916
3192  873
3193  840
3194  908
3195  902
3196  860
3197  866
3198  930
3199  876
3200  890
3201  881
3202  862
3203  869
3204  898
3205  798
3206  830
3207  906
3208  846
3209  901
3210  861
3211  861
3212  892
3213  831
3214  928
3215  893
3216  858
3217  892
3218  881
3219  835
3220  838
3221  872
3222  931
3223  876
3224  913
3225  889
3226  868
3227  854
3228  821
3229  910
3230  874
3231  856
3232  869
3233  868
3234  891
3235  857
3236  894
3237  871
3238  863
3239  941
3240  852
3241  902
3242  842
3243  881
3244  867
3245  896
3246  910
3247  876
3248  913
3249  887
3250  801
3251  835
3252  891
3253  898
3254  923
3255  865
3256  858
3257  917
3258  862
3259  824
3260  854
3261  840
3262  923
3263  909
3264  880
3265  925
3266  933
3267  861
3268  869
3269  868
3270  890
3271  863
3272  947
3273  935
3274  867
3275  950
3276  919
3277  918
3278  861
3279  872
3280  933
3281  909
3282  853
3283  916
3284  866
3285  865
3286  887
3287  896
3288  899
3289  808
3290  911
3291  879
3292  887
3293  903
3294  874
3295  897
3296  853
3297  867
3298  900
3299  877
3300  943
3301  894
3302  886
3303  852
3304  946
3305  857
3306  951
3307  920
3308  875
3309  882
3310  960
3311  919
3312  926
3313  908
3314  841
3315  866
3316  909
3317  931
3318  929
3319  885
3320  891
3321  906
3322  888
3323  916
3324  891
3325  885
3326  904
3327  919
3328  964
3329  885
3330  931
3331  938
3332  839
3333  941
3334  906
3335  842
3336  915
3337  940
3338  892
3339  897
3340  927
3341  917
3342  877
3343  889
3344  863
3345  932
3346  952
3347  900
3348  940
3349  967
3350  912
3351  882
3352  859
3353  903
3354  951
3355  931
3356  900
3357  908
3358  906
3359  890
3360  971
3361  904
3362  933
3363  880
3364  908
3365  923
3366  926
3367  927
3368  940
3369  921
3370  883
3371  940
3372  919
3373  906
3374  884
3375  912
3376  917
3377  924
3378  967
3379  900
3380  935
3381  913
3382  884
3383  918
3384  906
3385  834
3386  870
3387  910
3388  935
3389  938
3390  944
3391  902
3392  950
3393  945
3394  933
3395  946
3396  944
3397  937
3398  879
3399  907
3400  958
3401  930
3402  952
3403  950
3404  897
3405  993
3406  973
3407  937
3408  939
3409  944
3410  954
3411  959
3412  956
3413  911
3414  951
3415  880
3416  910
3417  955
3418  945
3419  942
3420  914
3421  881
3422  930
3423  931
3424  926
3425  954
3426  897
3427  926
3428  982
3429  1031
3430  936
3431  963
3432  904
3433  1002
3434  932
3435  897
3436  880
3437  988
3438  976
3439  945
3440  965
3441  945
3442  967
3443  955
3444  899
3445  963
3446  907
3447  983
3448  955
3449  958
3450  952
3451  957
3452  974
3453  947
3454  906
3455  994
3456  943
3457  937
3458  966
3459  950
3460  946
3461  934
3462  951
3463  902
3464  932
3465  951
3466  971
3467  929
3468  918
3469  946
3470  961
3471  907
3472  884
3473  800
3474  849
3475  776
3476  792
3477  780
3478  768
3479  712
3480  612
3481  592
3482  551
3483  389
3484  289
3485  150
3486  79
3487  34
3488  7
3489  4
3490  2
3491  0
3492  4
3493  1
3494  2
3495  1
3496  0
3497  0
3498  0
3499  0
3500  0
3501  0
3502  0
3503  0
3504  0
3505  0
3506  0
3507  0
3508  0
3509  0
3510  0
3511  0
3512  0
3513  0
3514  0
3515  0
3516  0
3517  0
3518  0
3519  0
3520  0
3521  0
3522  0
3523  0
3524  0
3525  0
3526  0
3527  0
3528  0
3529  0
3530  0
3531  0
3532  0
3533  0
3534  0
3535  0
3536  0
3537  0
3538  0
3539  0
3540  0
3541  0
3542  0
3543  0
3544  0
3545  0
3546  0
3547  0
3548  0
3549  0
3550  0
3551  0
3552  0
3553  0
3554  0
3555  0
3556  0
3557  0
3558  0
3559  0
3560  0
3561  0
3562  0
3563  0
3564  0
3565  0
3566  0
3567  0
3568  0
3569  0
3570  0
3571  0
3572  0
3573  0
3574  0
3575  0
3576  0
3577  0
3578  0
3579  0
3580  0
3581  0
3582  0
3583  0
3584  0
3585  0
3586  0
3587  0
3588  0
3589  0
3590  0
3591  0
3592  0
3593  0
3594  0
3595  0
3596  0
3597  0
3598  0
3599  0
3600  0
3601  0
3602  0
3603  0
3604  0
3605  0
3606  0
3607  0
3608  0
3609  0
3610  0
3611  0
3612  0
3613  0
3614  0
3615  0
3616  0
3617  0
3618  0
3619  0
3620  0
3621  0
3622  0
3623  0
3624  0
3625  0
3626  0
3627  0
3628  0
3629  0
3630  0
3631  0
3632  0
3633  0
3634  0
3635  0
3636  0
3637  0
3638  0
3639  0
3640  0
3641  0
3642  0
3643  0
3644  0
3645  0
3646  0
3647  0
3648  0
3649  0
3650  0
3651  0
3652  0
3653  0
3654  0
3655  0
3656  0
3657  0
3658  0
3659  0
3660  0
3661  0
3662  0
3663  0
3664  0
3665  0
3666  0
3667  0
3668  0
3669  0
3670  0
3671  0
3672  0
3673  0
3674  0
3675  0
3676  0
3677  0
3678  0
3679  0
3680  0
3681  0
3682  0
3683  0
3684  0
3685  0
3686  0
3687  0
3688  0
3689  0
3690  0
3691  0
3692  0
3693  0
3694  0
3695  0
3696  0
3697  0
3698  0
3699  0
3700  0
3701  0
3702  0
3703  0
3704  0
3705  0
3706  0
3707  0
3708  0
3709  0
3710  0
3711  0
3712  0
3713  0
3714  0
3715  0
3716  0
3717  0
3718  0
3719  0
3720  0
3721  0
3722  0
3723  0
3724  0
3725  0
3726  0
3727  0
3728  0
3729  0
3730  0
3731  0
3732  0
3733  0
3734  0
3735  0
3736  0
3737  0
3738  0
3739  0
3740  0
3741  0
3742  0
3743  0
3744  0
3745  0
3746  0
3747  0
3748  0
3749  0
3750  0
3751  0
3752  0
3753  0
3754  0
3755  0
3756  0
3757  0
3758  0
3759  0
3760  0
3761  0
3762  0
3763  0
3764  0
3765  0
3766  0
3767  0
3768  0
3769  0
3770  0
3771  0
3772  0
3773  0
3774  0
3775  0
3776  0
3777  0
3778  0
3779  0
3780  0
3781  0
3782  0
3783  0
3784  0
3785  0
3786  0
3787  0
3788  0
3789  0
3790  0
3791  0
3792  0
3793  0
3794  0
3795  0
3796  0
3797  0
3798  0
3799  0
3800  0
3801  0
3802  0
3803  0
3804  0
3805  0
3806  0
3807  0
3808  0
3809  0
3810  0
3811  0
3812  0
3813  0
3814  0
3815  0
3816  0
3817  0
3818  0
3819  0
3820  0
3821  0
3822  0
3823  0
3824  0
3825  0
3826  0
3827  0
3828  0
3829  0
3830  0
3831  0
3832  0
3833  0
3834  0
3835  0
3836  0
3837  0
3838  0
3839  0
3840  0
3841  0
3842  0
3843  0
3844  0
3845  0
3846  0
3847  0
3848  0
3849  0
3850  0
3851  0
3852  0
3853  0
3854  0
3855  0
3856  0
3857  0
3858  0
3859  0
3860  0
3861  0
3862  0
3863  0
3864  0
3865  0
3866  0
3867  0
3868  0
3869  0
3870  0
3871  0
3872  0
3873  0
3874  0
3875  0
3876  0
3877  0
3878  0
3879  0
3880  0
3881  0
3882  0
3883  0
3884  0
3885  0
3886  0
3887  0
3888  0
3889  0
3890  0
3891  0
3892  0
3893  0
3894  0
3895  0
3896  0
3897  0
3898  0
3899  0
3900  0
3901  0
3902  0
3903  0
3904  0
3905  0
3906  0
3907  0
3908  0
3909  0
3910  0
3911  0
3912  0
3913  0
3914  0
3915  0
3916  0
3917  0
3918  0
3919  0
3920  0
3921  0
3922  0
3923  0
3924  0
3925  0
3926  0
3927  0
3928  0
3929  0
3930  0
3931  0
3932  0
3933  0
3934  0
3935  0
3936  0
3937  0
3938  0
3939  0
3940  0
3941  0
3942  0
3943  0
3944  0
3945  0
3946  0
3947  0
3948  0
3949  0
3950  0
3951  0
3952  0
3953  0
3954  0
3955  0
3956  0
3957  0
3958  0
3959  0
3960  0
3961  0
3962  0
3963  0
3964  0
3965  0
3966  0
3967  0
3968  0
3969  0
3970  0
3971  0
3972  0
3973  0
3974  0
3975  0
3976  0
3977  0
3978  0
3979  0
3980  0
3981  0
3982  0
3983  0
3984  0
3985  0
3986  0
3987  0
3988  0
3989  0
3990  0
3991  0
3992  0
3993  0
3994  0
3995  0
3996  0
3997  0
3998  0
3999  0
4000  0
4001  0
4002  0
4003  0
4004  0
4005  0
4006  0
4007  0
4008  0
4009  0
4010  0
4011  0
4012  0
4013  0
4014  0
4015  0
4016  0
4017  0
4018  0
4019  0
4020  0
4021  0
4022  0
4023  0
4024  0
4025  0
4026  0
4027  0
4028  0
4029  0
4030  0
4031  0
4032  0
4033  0
4034  0
4035  0
4036  0
4037  0
4038  0
4039  0
4040  0
4041  0
4042  0
4043  0
4044  0
4045  0
4046  0
4047  0
4048  0
4049  0
4050  0
4051  0
4052  0
4053  0
4054  0
4055  0
4056  0
4057  0
4058  0
4059  0
4060  0
4061  0
4062  0
4063  0
4064  0
4065  0
4066  0
4067  0
4068  0
4069  0
4070  0
4071  0
4072  0
4073  0
4074  0
4075  0
4076  0
4077  0
4078  0
4079  0
4080  0
4081  0
4082  0
4083  0
4084  0
4085  0
4086  0
4087  0
4088  0
4089  0
4090  0
4091  0
4092  0
4093  0
4094  0
4095  0
