0  0
1  0
2  0
3  0
4  0
5  0
6  0
7  0
8  0
9  0
10  0
11  0
12  0
13  0
14  0
15  0
16  0
17  0
18  0
19  0
20  0
21  0
22  0
23  0
24  0
25  0
26  0
27  0
28  0
29  0
30  0
31  0
32  0
33  0
34  0
35  0
36  0
37  0
38  0
39  0
40  0
41  0
42  0
43  0
44  0
45  0
46  0
47  0
48  0
49  0
50  0
51  0
52  0
53  0
54  0
55  0
56  0
57  0
58  0
59  0
60  0
61  0
62  0
63  0
64  0
65  0
66  0
67  0
68  0
69  0
70  0
71  0
72  0
73  0
74  0
75  0
76  0
77  0
78  0
79  0
80  0
81  0
82  0
83  0
84  0
85  0
86  0
87  0
88  0
89  0
90  0
91  0
92  0
93  0
94  0
95  0
96  0
97  0
98  0
99  0
100  0
101  0
102  0
103  0
104  0
105  0
106  0
107  0
108  0
109  0
110  0
111  0
112  0
113  0
114  0
115  0
116  0
117  0
118  0
119  0
120  0
121  0
122  0
123  0
124  0
125  0
126  1
127  0
128  0
129  0
130  0
131  0
132  0
133  0
134  0
135  0
136  0
137  0
138  0
139  0
140  0
141  0
142  0
143  0
144  0
145  0
146  0
147  0
148  0
149  0
150  0
151  0
152  0
153  0
154  0
155  0
156  0
157  0
158  0
159  0
160  0
161  0
162  0
163  0
164  0
165  0
166  0
167  0
168  0
169  0
170  0
171  0
172  0
173  0
174  0
175  0
176  0
177  0
178  0
179  0
180  0
181  0
182  0
183  0
184  1
185  1
186  1
187  0
188  3
189  1
190  0
191  0
192  1
193  3
194  0
195  4
196  6
197  4
198  6
199  25
200  25
201  73
202  146
203  248
204  422
205  634
206  923
207  1385
208  1771
209  2402
210  2853
211  3388
212  3923
213  4433
214  4878
215  5127
216  5282
217  5369
218  5395
219  5627
220  5501
221  5371
222  5404
223  5383
224  5329
225  5497
226  5307
227  5186
228  5013
229  5114
230  5094
231  5050
232  5100
233  5006
234  5043
235  4909
236  4857
237  4823
238  4708
239  4854
240  4770
241  4658
242  4688
243  4663
244  4656
245  4614
246  4564
247  4548
248  4458
249  4512
250  4546
251  4404
252  4396
253  4360
254  4411
255  4429
256  4327
257  4173
258  4328
259  4258
260  4224
261  4195
262  4149
263  4275
264  4186
265  3928
266  4088
267  3924
268  3966
269  3958
270  3944
271  3959
272  3814
273  3879
274  3773
275  3884
276  3816
277  3809
278  3853
279  3677
280  3780
281  3864
282  3730
283  3631
284  3729
285  3762
286  3646
287  3634
288  3612
289  3600
290  3564
291  3538
292  3599
293  3519
294  3477
295  3474
296  3607
297  3465
298  3485
299  3512
300  3406
301  3354
302  3468
303  3517
304  3463
305  3412
306  3382
307  3403
308  3374
309  3364
310  3368
311  3404
312  3345
313  3375
314  3385
315  3413
316  3370
317  3320
318  3431
319  3255
320  3262
321  3300
322  3278
323  3264
324  3439
325  3367
326  3362
327  3196
328  3328
329  3367
330  3331
331  3171
332  3154
333  3248
334  3193
335  3221
336  3249
337  3244
338  3342
339  3146
340  3194
341  3179
342  3212
343  3113
344  3180
345  3124
346  3070
347  3141
348  3115
349  3104
350  3035
351  3196
352  3187
353  3141
354  3047
355  3088
356  3144
357  3171
358  3109
359  3190
360  3056
361  3178
362  3134
363  3021
364  3178
365  3083
366  3107
367  3148
368  3143
369  3126
370  3109
371  3039
372  3108
373  2973
374  3137
375  3094
376  3114
377  3020
378  3108
379  3111
380  3118
381  3080
382  3082
383  3002
384  3035
385  3039
386  3073
387  3101
388  3105
389  2972
390  3007
391  3093
392  2968
393  3012
394  3006
395  2891
396  2977
397  2930
398  3027
399  2973
400  2972
401  3053
402  3112
403  2988
404  2927
405  3023
406  3009
407  2998
408  3026
409  3020
410  2839
411  2957
412  3009
413  2962
414  2993
415  2999
416  2968
417  2956
418  3015
419  2910
420  3014
421  2985
422  2975
423  2997
424  2887
425  2901
426  2911
427  2930
428  2971
429  2978
430  2976
431  2895
432  2838
433  2836
434  2855
435  2823
436  2991
437  2928
438  2905
439  2889
440  2828
441  2886
442  2948
443  2851
444  2928
445  2862
446  2850
447  2939
448  2813
449  2891
450  2906
451  2914
452  2840
453  2874
454  2873
455  2862
456  2917
457  2828
458  2827
459  2859
460  2876
461  2837
462  2922
463  2768
464  2891
465  2835
466  2884
467  2911
468  2829
469  2768
470  2884
471  2830
472  2848
473  2848
474  2822
475  2798
476  2773
477  2742
478  2739
479  2804
480  2844
481  2865
482  2820
483  2830
484  2783
485  2879
486  2786
487  2715
488  2741
489  2813
490  2793
491  2695
492  2696
493  2731
494  2833
495  2776
496  2721
497  2715
498  2797
499  2702
500  2793
501  2633
502  2829
503  2717
504  2717
505  2707
506  2720
507  2675
508  2703
509  2783
510  2656
511  2667
512  2703
513  2689
514  2673
515  2819
516  2657
517  2724
518  2613
519  2598
520  2621
521  2633
522  2605
523  2636
524  2611
525  2606
526  2502
527  2682
528  2653
529  2644
530  2545
531  2476
532  2614
533  2558
534  2529
535  2641
536  2627
537  2518
538  2545
539  2530
540  2553
541  2549
542  2492
543  2553
544  2538
545  2396
546  2524
547  2505
548  2428
549  2457
550  2508
551  2496
552  2456
553  2388
554  2391
555  2490
556  2443
557  2504
558  2381
559  2408
560  2447
561  2372
562  2328
563  2361
564  2362
565  2281
566  2225
567  2332
568  2400
569  2340
570  2240
571  2242
572  2243
573  2356
574  2227
575  2215
576  2221
577  2302
578  2123
579  2273
580  2216
581  2157
582  2280
583  2263
584  2233
585  2115
586  2071
587  2117
588  2104
589  2108
590  2207
591  2200
592  2177
593  2119
594  2138
595  2093
596  2025
597  2090
598  2105
599  2029
600  2144
601  2054
602  2021
603  2053
604  2004
605  2010
606  2075
607  2037
608  1989
609  2020
610  1983
611  1955
612  1930
613  1953
614  1958
615  1925
616  1848
617  1863
618  1885
619  1933
620  1921
621  1903
622  1846
623  1815
624  1789
625  1830
626  1828
627  1827
628  1803
629  1819
630  1738
631  1797
632  1769
633  1747
634  1752
635  1711
636  1639
637  1648
638  1614
639  1648
640  1639
641  1581
642  1637
643  1547
644  1557
645  1619
646  1513
647  1451
648  1542
649  1447
650  1407
651  1453
652  1416
653  1425
654  1412
655  1370
656  1344
657  1267
658  1340
659  1280
660  1258
661  1243
662  1220
663  1240
664  1195
665  1139
666  1188
667  1080
668  1043
669  1114
670  1065
671  1019
672  969
673  1043
674  971
675  981
676  923
677  923
678  892
679  912
680  857
681  833
682  857
683  788
684  813
685  774
686  683
687  698
688  665
689  663
690  626
691  606
692  590
693  596
694  537
695  551
696  547
697  506
698  502
699  505
700  433
701  446
702  449
703  389
704  394
705  381
706  385
707  355
708  354
709  318
710  297
711  262
712  297
713  277
714  255
715  241
716  230
717  211
718  230
719  215
720  208
721  201
722  201
723  198
724  165
725  144
726  149
727  147
728  117
729  128
730  121
731  104
732  124
733  110
734  101
735  86
736  109
737  88
738  95
739  102
740  76
741  58
742  62
743  58
744  60
745  56
746  45
747  42
748  44
749  43
750  36
751  32
752  33
753  40
754  32
755  38
756  25
757  33
758  37
759  22
760  31
761  25
762  13
763  26
764  20
765  19
766  17
767  24
768  13
769  26
770  12
771  16
772  18
773  18
774  15
775  16
776  12
777  12
778  9
779  12
780  13
781  15
782  14
783  5
784  12
785  8
786  14
787  8
788  11
789  14
790  5
791  9
792  6
793  8
794  8
795  5
796  7
797  9
798  8
799  7
800  4
801  2
802  7
803  5
804  10
805  4
806  5
807  1
808  8
809  8
810  6
811  7
812  3
813  6
814  5
815  7
816  4
817  5
818  10
819  5
820  8
821  6
822  4
823  9
824  0
825  8
826  2
827  7
828  6
829  7
830  3
831  4
832  4
833  4
834  3
835  5
836  5
837  3
838  4
839  7
840  2
841  3
842  2
843  2
844  11
845  4
846  3
847  5
848  5
849  3
850  2
851  4
852  1
853  2
854  5
855  4
856  6
857  3
858  2
859  5
860  1
861  4
862  2
863  5
864  3
865  4
866  1
867  4
868  4
869  4
870  5
871  0
872  5
873  3
874  4
875  2
876  4
877  1
878  1
879  5
880  1
881  3
882  3
883  1
884  1
885  3
886  5
887  1
888  8
889  4
890  2
891  3
892  1
893  3
894  4
895  1
896  5
897  5
898  6
899  2
900  4
901  0
902  5
903  2
904  3
905  1
906  5
907  2
908  5
909  2
910  4
911  2
912  0
913  2
914  1
915  4
916  4
917  4
918  3
919  0
920  3
921  3
922  1
923  1
924  3
925  2
926  2
927  2
928  3
929  2
930  4
931  3
932  0
933  2
934  1
935  1
936  4
937  2
938  2
939  4
940  3
941  1
942  3
943  4
944  3
945  2
946  3
947  4
948  2
949  3
950  1
951  4
952  2
953  2
954  3
955  1
956  5
957  2
958  5
959  4
960  2
961  2
962  0
963  2
964  1
965  1
966  1
967  4
968  2
969  0
970  2
971  6
972  3
973  1
974  0
975  3
976  3
977  1
978  1
979  0
980  3
981  3
982  1
983  1
984  2
985  1
986  4
987  5
988  2
989  1
990  3
991  2
992  3
993  1
994  4
995  3
996  0
997  3
998  2
999  3
1000  2
1001  3
1002  1
1003  1
1004  5
1005  1
1006  1
1007  0
1008  2
1009  5
1010  3
1011  0
1012  2
1013  2
1014  0
1015  2
1016  4
1017  1
1018  1
1019  4
1020  4
1021  1
1022  3
1023  2
1024  2
1025  0
1026  2
1027  3
1028  0
1029  3
1030  0
1031  1
1032  1
1033  2
1034  3
1035  2
1036  1
1037  1
1038  3
1039  4
1040  1
1041  1
1042  2
1043  0
1044  3
1045  1
1046  0
1047  1
1048  4
1049  2
1050  1
1051  2
1052  1
1053  0
1054  1
1055  3
1056  2
1057  0
1058  0
1059  2
1060  1
1061  0
1062  0
1063  1
1064  0
1065  0
1066  2
1067  2
1068  0
1069  2
1070  1
1071  1
1072  1
1073  0
1074  0
1075  1
1076  1
1077  3
1078  0
1079  2
1080  0
1081  1
1082  0
1083  1
1084  2
1085  0
1086  3
1087  0
1088  0
1089  3
1090  2
1091  2
1092  0
1093  1
1094  0
1095  1
1096  2
1097  1
1098  1
1099  0
1100  0
1101  1
1102  1
1103  1
1104  2
1105  0
1106  1
1107  2
1108  2
1109  1
1110  1
1111  1
1112  1
1113  0
1114  0
1115  0
1116  1
1117  2
1118  0
1119  0
1120  0
1121  2
1122  1
1123  0
1124  2
1125  1
1126  0
1127  0
1128  1
1129  0
1130  1
1131  0
1132  2
1133  0
1134  2
1135  0
1136  0
1137  0
1138  0
1139  0
1140  0
1141  2
1142  1
1143  0
1144  1
1145  0
1146  1
1147  0
1148  0
1149  0
1150  1
1151  1
1152  0
1153  0
1154  2
1155  0
1156  2
1157  4
1158  0
1159  2
1160  1
1161  1
1162  1
1163  0
1164  0
1165  0
1166  0
1167  1
1168  1
1169  0
1170  1
1171  1
1172  3
1173  0
1174  0
1175  0
1176  3
1177  0
1178  2
1179  2
1180  1
1181  1
1182  1
1183  0
1184  0
1185  2
1186  2
1187  0
1188  2
1189  0
1190  0
1191  1
1192  0
1193  0
1194  0
1195  0
1196  2
1197  0
1198  3
1199  0
1200  2
1201  1
1202  1
1203  0
1204  1
1205  0
1206  1
1207  2
1208  1
1209  0
1210  1
1211  1
1212  0
1213  0
1214  0
1215  2
1216  1
1217  0
1218  0
1219  1
1220  3
1221  1
1222  1
1223  0
1224  1
1225  1
1226  0
1227  0
1228  1
1229  1
1230  1
1231  0
1232  0
1233  2
1234  0
1235  1
1236  0
1237  0
1238  2
1239  2
1240  0
1241  0
1242  0
1243  2
1244  1
1245  0
1246  2
1247  2
1248  0
1249  1
1250  0
1251  0
1252  0
1253  0
1254  1
1255  0
1256  0
1257  1
1258  0
1259  0
1260  0
1261  2
1262  0
1263  0
1264  0
1265  0
1266  0
1267  1
1268  1
1269  0
1270  0
1271  1
1272  0
1273  0
1274  3
1275  0
1276  0
1277  1
1278  0
1279  1
1280  1
1281  0
1282  0
1283  1
1284  0
1285  3
1286  1
1287  1
1288  0
1289  0
1290  0
1291  0
1292  1
1293  0
1294  0
1295  1
1296  0
1297  1
1298  0
1299  0
1300  0
1301  1
1302  0
1303  1
1304  0
1305  1
1306  0
1307  1
1308  0
1309  0
1310  0
1311  1
1312  0
1313  0
1314  0
1315  1
1316  0
1317  0
1318  2
1319  0
1320  0
1321  1
1322  1
1323  0
1324  0
1325  1
1326  0
1327  0
1328  0
1329  1
1330  0
1331  0
1332  0
1333  0
1334  0
1335  0
1336  0
1337  0
1338  0
1339  1
1340  0
1341  0
1342  1
1343  0
1344  0
1345  3
1346  0
1347  0
1348  1
1349  0
1350  1
1351  0
1352  0
1353  0
1354  0
1355  0
1356  0
1357  0
1358  1
1359  0
1360  3
1361  0
1362  0
1363  0
1364  0
1365  1
1366  1
1367  2
1368  1
1369  0
1370  1
1371  0
1372  0
1373  0
1374  0
1375  2
1376  0
1377  0
1378  0
1379  0
1380  0
1381  0
1382  0
1383  0
1384  0
1385  0
1386  2
1387  0
1388  1
1389  0
1390  1
1391  2
1392  0
1393  0
1394  0
1395  1
1396  0
1397  0
1398  1
1399  0
1400  1
1401  0
1402  1
1403  0
1404  0
1405  1
1406  0
1407  0
1408  0
1409  2
1410  0
1411  0
1412  0
1413  0
1414  0
1415  0
1416  1
1417  0
1418  1
1419  1
1420  0
1421  0
1422  1
1423  0
1424  0
1425  0
1426  3
1427  1
1428  1
1429  0
1430  2
1431  0
1432  2
1433  1
1434  0
1435  3
1436  1
1437  0
1438  2
1439  0
1440  0
1441  0
1442  0
1443  0
1444  0
1445  0
1446  1
1447  0
1448  0
1449  0
1450  0
1451  1
1452  1
1453  0
1454  2
1455  1
1456  0
1457  0
1458  1
1459  0
1460  1
1461  1
1462  0
1463  0
1464  0
1465  0
1466  0
1467  0
1468  2
1469  0
1470  0
1471  2
1472  1
1473  0
1474  0
1475  0
1476  2
1477  1
1478  0
1479  0
1480  0
1481  0
1482  0
1483  0
1484  1
1485  0
1486  0
1487  2
1488  1
1489  1
1490  0
1491  0
1492  3
1493  1
1494  1
1495  0
1496  1
1497  1
1498  0
1499  0
1500  1
1501  0
1502  0
1503  0
1504  2
1505  0
1506  0
1507  1
1508  0
1509  0
1510  0
1511  0
1512  2
1513  2
1514  1
1515  1
1516  0
1517  0
1518  0
1519  0
1520  1
1521  1
1522  0
1523  2
1524  1
1525  0
1526  3
1527  1
1528  1
1529  0
1530  1
1531  0
1532  3
1533  1
1534  1
1535  0
1536  0
1537  1
1538  1
1539  0
1540  1
1541  0
1542  1
1543  1
1544  1
1545  1
1546  2
1547  1
1548  0
1549  1
1550  0
1551  1
1552  2
1553  1
1554  1
1555  0
1556  0
1557  0
1558  1
1559  0
1560  0
1561  0
1562  2
1563  3
1564  0
1565  0
1566  0
1567  0
1568  0
1569  0
1570  0
1571  0
1572  0
1573  1
1574  0
1575  1
1576  0
1577  0
1578  0
1579  1
1580  0
1581  0
1582  0
1583  1
1584  1
1585  0
1586  0
1587  0
1588  1
1589  0
1590  1
1591  0
1592  0
1593  0
1594  1
1595  0
1596  0
1597  1
1598  0
1599  1
1600  1
1601  0
1602  1
1603  0
1604  0
1605  0
1606  2
1607  0
1608  2
1609  0
1610  2
1611  1
1612  1
1613  2
1614  0
1615  2
1616  1
1617  0
1618  3
1619  0
1620  0
1621  1
1622  2
1623  0
1624  1
1625  0
1626  0
1627  2
1628  2
1629  1
1630  0
1631  1
1632  0
1633  2
1634  2
1635  1
1636  0
1637  1
1638  0
1639  2
1640  2
1641  0
1642  1
1643  0
1644  0
1645  0
1646  1
1647  0
1648  0
1649  1
1650  0
1651  0
1652  1
1653  0
1654  1
1655  1
1656  0
1657  2
1658  0
1659  0
1660  0
1661  1
1662  0
1663  0
1664  1
1665  1
1666  2
1667  0
1668  1
1669  2
1670  0
1671  0
1672  0
1673  1
1674  1
1675  0
1676  1
1677  1
1678  2
1679  1
1680  0
1681  0
1682  0
1683  0
1684  1
1685  0
1686  1
1687  1
1688  0
1689  1
1690  0
1691  2
1692  0
1693  0
1694  0
1695  0
1696  0
1697  1
1698  0
1699  0
1700  0
1701  0
1702  0
1703  1
1704  1
1705  1
1706  1
1707  1
1708  1
1709  0
1710  1
1711  1
1712  0
1713  2
1714  2
1715  2
1716  2
1717  0
1718  0
1719  0
1720  4
1721  0
1722  1
1723  0
1724  0
1725  1
1726  0
1727  0
1728  0
1729  1
1730  1
1731  1
1732  1
1733  0
1734  3
1735  2
1736  2
1737  0
1738  2
1739  0
1740  0
1741  0
1742  1
1743  0
1744  1
1745  1
1746  1
1747  1
1748  1
1749  0
1750  1
1751  1
1752  0
1753  0
1754  0
1755  0
1756  1
1757  0
1758  0
1759  0
1760  0
1761  1
1762  1
1763  1
1764  1
1765  1
1766  0
1767  0
1768  0
1769  2
1770  0
1771  2
1772  2
1773  0
1774  1
1775  0
1776  2
1777  2
1778  1
1779  2
1780  0
1781  0
1782  0
1783  0
1784  1
1785  2
1786  2
1787  0
1788  1
1789  5
1790  1
1791  1
1792  1
1793  1
1794  2
1795  0
1796  1
1797  2
1798  3
1799  1
1800  1
1801  1
1802  1
1803  3
1804  0
1805  4
1806  2
1807  0
1808  2
1809  2
1810  1
1811  0
1812  2
1813  2
1814  1
1815  0
1816  0
1817  1
1818  2
1819  3
1820  0
1821  1
1822  0
1823  1
1824  1
1825  3
1826  1
1827  1
1828  0
1829  1
1830  2
1831  1
1832  1
1833  1
1834  2
1835  1
1836  0
1837  1
1838  0
1839  1
1840  0
1841  0
1842  1
1843  4
1844  3
1845  1
1846  1
1847  1
1848  1
1849  1
1850  0
1851  0
1852  1
1853  1
1854  1
1855  2
1856  0
1857  2
1858  2
1859  2
1860  0
1861  0
1862  1
1863  0
1864  1
1865  1
1866  2
1867  1
1868  3
1869  0
1870  1
1871  0
1872  1
1873  1
1874  2
1875  0
1876  2
1877  2
1878  1
1879  1
1880  1
1881  2
1882  1
1883  3
1884  1
1885  3
1886  2
1887  0
1888  1
1889  1
1890  3
1891  0
1892  0
1893  0
1894  1
1895  2
1896  1
1897  0
1898  2
1899  0
1900  1
1901  2
1902  2
1903  1
1904  1
1905  1
1906  1
1907  2
1908  0
1909  1
1910  0
1911  2
1912  0
1913  0
1914  1
1915  1
1916  1
1917  1
1918  1
1919  0
1920  0
1921  1
1922  0
1923  1
1924  0
1925  0
1926  0
1927  0
1928  1
1929  1
1930  0
1931  1
1932  0
1933  2
1934  0
1935  0
1936  1
1937  0
1938  2
1939  1
1940  1
1941  1
1942  1
1943  1
1944  0
1945  0
1946  1
1947  0
1948  0
1949  2
1950  0
1951  0
1952  0
1953  0
1954  3
1955  0
1956  1
1957  0
1958  0
1959  0
1960  1
1961  1
1962  0
1963  2
1964  0
1965  1
1966  0
1967  1
1968  1
1969  0
1970  1
1971  4
1972  1
1973  1
1974  1
1975  1
1976  0
1977  2
1978  1
1979  1
1980  1
1981  1
1982  0
1983  2
1984  0
1985  4
1986  0
1987  0
1988  0
1989  0
1990  0
1991  1
1992  2
1993  1
1994  2
1995  1
1996  0
1997  1
1998  1
1999  2
2000  1
2001  2
2002  0
2003  2
2004  1
2005  0
2006  0
2007  0
2008  2
2009  1
2010  0
2011  0
2012  1
2013  0
2014  1
2015  0
2016  0
2017  2
2018  3
2019  0
2020  2
2021  0
2022  0
2023  0
2024  0
2025  3
2026  3
2027  0
2028  1
2029  0
2030  2
2031  0
2032  1
2033  2
2034  1
2035  2
2036  0
2037  2
2038  1
2039  0
2040  3
2041  0
2042  1
2043  0
2044  0
2045  1
2046  1
2047  1
2048  0
2049  0
2050  0
2051  0
2052  2
2053  1
2054  0
2055  2
2056  1
2057  2
2058  0
2059  2
2060  1
2061  2
2062  1
2063  0
2064  1
2065  0
2066  0
2067  2
2068  0
2069  2
2070  1
2071  2
2072  1
2073  1
2074  1
2075  0
2076  2
2077  0
2078  1
2079  1
2080  1
2081  1
2082  0
2083  0
2084  2
2085  1
2086  2
2087  0
2088  1
2089  0
2090  1
2091  0
2092  2
2093  1
2094  1
2095  1
2096  0
2097  1
2098  1
2099  2
2100  1
2101  1
2102  2
2103  0
2104  0
2105  0
2106  0
2107  2
2108  1
2109  1
2110  2
2111  3
2112  0
2113  0
2114  1
2115  2
2116  2
2117  1
2118  0
2119  2
2120  3
2121  0
2122  0
2123  1
2124  2
2125  1
2126  0
2127  1
2128  0
2129  0
2130  0
2131  0
2132  0
2133  1
2134  1
2135  0
2136  2
2137  0
2138  3
2139  1
2140  0
2141  2
2142  0
2143  0
2144  1
2145  0
2146  0
2147  1
2148  0
2149  1
2150  2
2151  5
2152  1
2153  0
2154  2
2155  0
2156  0
2157  2
2158  0
2159  1
2160  2
2161  0
2162  1
2163  1
2164  0
2165  0
2166  1
2167  0
2168  2
2169  0
2170  1
2171  2
2172  0
2173  0
2174  0
2175  0
2176  0
2177  1
2178  0
2179  1
2180  0
2181  0
2182  1
2183  1
2184  1
2185  1
2186  0
2187  0
2188  0
2189  0
2190  1
2191  1
2192  2
2193  1
2194  0
2195  2
2196  0
2197  0
2198  1
2199  0
2200  1
2201  2
2202  0
2203  1
2204  1
2205  2
2206  0
2207  1
2208  2
2209  1
2210  0
2211  0
2212  0
2213  1
2214  0
2215  1
2216  1
2217  0
2218  4
2219  1
2220  2
2221  1
2222  0
2223  1
2224  1
2225  1
2226  2
2227  0
2228  1
2229  0
2230  1
2231  1
2232  2
2233  2
2234  0
2235  0
2236  1
2237  1
2238  2
2239  0
2240  1
2241  0
2242  1
2243  1
2244  0
2245  2
2246  1
2247  1
2248  1
2249  1
2250  3
2251  1
2252  0
2253  1
2254  1
2255  0
2256  1
2257  1
2258  0
2259  0
2260  1
2261  1
2262  0
2263  2
2264  3
2265  1
2266  1
2267  0
2268  1
2269  1
2270  0
2271  1
2272  1
2273  1
2274  0
2275  0
2276  2
2277  0
2278  0
2279  1
2280  1
2281  1
2282  0
2283  0
2284  2
2285  0
2286  0
2287  1
2288  1
2289  0
2290  1
2291  0
2292  1
2293  0
2294  2
2295  0
2296  2
2297  1
2298  0
2299  2
2300  1
2301  0
2302  0
2303  1
2304  1
2305  0
2306  0
2307  3
2308  3
2309  0
2310  1
2311  1
2312  1
2313  0
2314  2
2315  1
2316  1
2317  1
2318  0
2319  2
2320  0
2321  0
2322  2
2323  0
2324  0
2325  0
2326  1
2327  4
2328  0
2329  1
2330  1
2331  1
2332  0
2333  0
2334  1
2335  2
2336  0
2337  1
2338  0
2339  0
2340  2
2341  0
2342  0
2343  0
2344  0
2345  2
2346  1
2347  0
2348  0
2349  1
2350  0
2351  1
2352  0
2353  2
2354  0
2355  0
2356  0
2357  1
2358  0
2359  0
2360  0
2361  0
2362  1
2363  1
2364  0
2365  2
2366  0
2367  0
2368  2
2369  1
2370  2
2371  0
2372  0
2373  0
2374  0
2375  0
2376  0
2377  1
2378  0
2379  3
2380  1
2381  0
2382  1
2383  0
2384  2
2385  1
2386  0
2387  0
2388  0
2389  1
2390  0
2391  2
2392  0
2393  2
2394  1
2395  0
2396  0
2397  1
2398  1
2399  2
2400  3
2401  0
2402  1
2403  0
2404  0
2405  3
2406  1
2407  1
2408  2
2409  0
2410  0
2411  0
2412  1
2413  1
2414  2
2415  0
2416  1
2417  0
2418  1
2419  1
2420  1
2421  2
2422  0
2423  1
2424  3
2425  1
2426  2
2427  3
2428  0
2429  1
2430  2
2431  1
2432  0
2433  1
2434  0
2435  1
2436  1
2437  2
2438  0
2439  0
2440  0
2441  1
2442  2
2443  0
2444  2
2445  2
2446  0
2447  1
2448  0
2449  3
2450  0
2451  0
2452  1
2453  0
2454  0
2455  1
2456  1
2457  0
2458  0
2459  0
2460  1
2461  1
2462  1
2463  1
2464  0
2465  1
2466  0
2467  1
2468  0
2469  1
2470  0
2471  0
2472  0
2473  1
2474  2
2475  0
2476  0
2477  0
2478  0
2479  0
2480  1
2481  1
2482  0
2483  0
2484  2
2485  2
2486  1
2487  2
2488  1
2489  0
2490  0
2491  2
2492  1
2493  3
2494  4
2495  2
2496  0
2497  1
2498  0
2499  0
2500  2
2501  0
2502  1
2503  2
2504  0
2505  1
2506  3
2507  2
2508  0
2509  0
2510  2
2511  0
2512  0
2513  1
2514  0
2515  0
2516  1
2517  1
2518  0
2519  1
2520  1
2521  0
2522  0
2523  2
2524  1
2525  0
2526  0
2527  1
2528  0
2529  2
2530  0
2531  0
2532  0
2533  0
2534  0
2535  0
2536  5
2537  1
2538  0
2539  1
2540  0
2541  1
2542  1
2543  2
2544  0
2545  1
2546  0
2547  1
2548  0
2549  0
2550  0
2551  0
2552  3
2553  1
2554  0
2555  0
2556  0
2557  1
2558  1
2559  1
2560  2
2561  0
2562  2
2563  0
2564  1
2565  1
2566  1
2567  0
2568  0
2569  1
2570  0
2571  0
2572  1
2573  0
2574  1
2575  2
2576  1
2577  0
2578  0
2579  2
2580  0
2581  1
2582  0
2583  0
2584  0
2585  1
2586  0
2587  1
2588  1
2589  3
2590  2
2591  1
2592  1
2593  0
2594  0
2595  3
2596  0
2597  1
2598  1
2599  1
2600  3
2601  1
2602  2
2603  0
2604  1
2605  2
2606  2
2607  2
2608  0
2609  0
2610  0
2611  2
2612  0
2613  0
2614  1
2615  2
2616  1
2617  0
2618  0
2619  1
2620  0
2621  3
2622  0
2623  3
2624  1
2625  2
2626  0
2627  1
2628  0
2629  0
2630  1
2631  0
2632  0
2633  1
2634  1
2635  0
2636  1
2637  0
2638  1
2639  0
2640  1
2641  1
2642  0
2643  2
2644  0
2645  0
2646  0
2647  0
2648  2
2649  0
2650  0
2651  1
2652  0
2653  1
2654  0
2655  0
2656  1
2657  0
2658  3
2659  1
2660  1
2661  0
2662  1
2663  1
2664  0
2665  0
2666  2
2667  1
2668  3
2669  0
2670  1
2671  0
2672  0
2673  1
2674  1
2675  3
2676  0
2677  0
2678  2
2679  0
2680  1
2681  1
2682  0
2683  1
2684  1
2685  1
2686  0
2687  0
2688  1
2689  0
2690  0
2691  0
2692  0
2693  1
2694  0
2695  0
2696  0
2697  0
2698  0
2699  2
2700  1
2701  2
2702  1
2703  2
2704  1
2705  0
2706  3
2707  1
2708  0
2709  0
2710  3
2711  3
2712  1
2713  0
2714  0
2715  0
2716  1
2717  1
2718  1
2719  1
2720  2
2721  0
2722  0
2723  0
2724  0
2725  0
2726  1
2727  1
2728  1
2729  1
2730  1
2731  1
2732  0
2733  0
2734  1
2735  1
2736  0
2737  1
2738  0
2739  0
2740  2
2741  0
2742  1
2743  1
2744  1
2745  1
2746  0
2747  2
2748  0
2749  3
2750  0
2751  1
2752  0
2753  1
2754  0
2755  0
2756  3
2757  2
2758  0
2759  1
2760  0
2761  1
2762  1
2763  0
2764  0
2765  0
2766  0
2767  2
2768  2
2769  0
2770  2
2771  0
2772  1
2773  2
2774  1
2775  0
2776  0
2777  1
2778  0
2779  2
2780  1
2781  1
2782  1
2783  0
2784  0
2785  1
2786  0
2787  1
2788  0
2789  0
2790  0
2791  1
2792  0
2793  0
2794  1
2795  0
2796  0
2797  0
2798  2
2799  0
2800  1
2801  0
2802  2
2803  1
2804  1
2805  1
2806  2
2807  0
2808  0
2809  1
2810  2
2811  1
2812  0
2813  1
2814  0
2815  0
2816  0
2817  2
2818  1
2819  1
2820  1
2821  2
2822  1
2823  1
2824  0
2825  0
2826  1
2827  2
2828  1
2829  2
2830  1
2831  1
2832  2
2833  0
2834  0
2835  2
2836  0
2837  0
2838  0
2839  1
2840  0
2841  1
2842  2
2843  0
2844  1
2845  0
2846  1
2847  0
2848  1
2849  0
2850  1
2851  1
2852  0
2853  1
2854  3
2855  0
2856  1
2857  0
2858  1
2859  0
2860  2
2861  0
2862  0
2863  1
2864  1
2865  1
2866  0
2867  0
2868  0
2869  0
2870  2
2871  1
2872  0
2873  0
2874  2
2875  1
2876  0
2877  1
2878  1
2879  2
2880  1
2881  0
2882  0
2883  1
2884  0
2885  0
2886  1
2887  3
2888  0
2889  0
2890  1
2891  0
2892  1
2893  1
2894  0
2895  0
2896  0
2897  0
2898  1
2899  0
2900  0
2901  0
2902  1
2903  0
2904  1
2905  1
2906  0
2907  0
2908  2
2909  1
2910  3
2911  0
2912  2
2913  0
2914  2
2915  1
2916  1
2917  0
2918  0
2919  1
2920  0
2921  0
2922  1
2923  1
2924  1
2925  0
2926  1
2927  0
2928  1
2929  0
2930  3
2931  0
2932  2
2933  2
2934  2
2935  1
2936  0
2937  3
2938  1
2939  0
2940  0
2941  0
2942  1
2943  0
2944  3
2945  1
2946  1
2947  1
2948  1
2949  1
2950  1
2951  0
2952  0
2953  2
2954  0
2955  0
2956  0
2957  0
2958  1
2959  1
2960  0
2961  3
2962  0
2963  0
2964  0
2965  1
2966  2
2967  1
2968  0
2969  1
2970  1
2971  1
2972  1
2973  1
2974  0
2975  2
2976  0
2977  0
2978  0
2979  1
2980  1
2981  0
2982  0
2983  0
2984  0
2985  0
2986  2
2987  0
2988  0
2989  3
2990  0
2991  1
2992  3
2993  0
2994  3
2995  0
2996  0
2997  0
2998  3
2999  0
3000  1
3001  0
3002  0
3003  0
3004  1
3005  0
3006  0
3007  0
3008  3
3009  1
3010  3
3011  1
3012  0
3013  1
3014  1
3015  0
3016  1
3017  0
3018  1
3019  0
3020  0
3021  0
3022  0
3023  0
3024  0
3025  0
3026  2
3027  0
3028  1
3029  2
3030  0
3031  0
3032  1
3033  1
3034  2
3035  0
3036  0
3037  0
3038  0
3039  0
3040  0
3041  0
3042  0
3043  0
3044  0
3045  0
3046  1
3047  1
3048  0
3049  0
3050  0
3051  1
3052  0
3053  1
3054  0
3055  0
3056  0
3057  0
3058  0
3059  0
3060  1
3061  1
3062  0
3063  0
3064  1
3065  1
3066  1
3067  1
3068  1
3069  0
3070  0
3071  0
3072  2
3073  1
3074  1
3075  0
3076  0
3077  0
3078  0
3079  1
3080  0
3081  0
3082  0
3083  0
3084  2
3085  1
3086  0
3087  0
3088  1
3089  1
3090  2
3091  1
3092  1
3093  1
3094  1
3095  0
3096  1
3097  0
3098  2
3099  1
3100  1
3101  0
3102  1
3103  0
3104  4
3105  1
3106  1
3107  0
3108  2
3109  0
3110  0
3111  1
3112  0
3113  0
3114  1
3115  1
3116  2
3117  1
3118  0
3119  2
3120  0
3121  1
3122  2
3123  1
3124  0
3125  0
3126  2
3127  2
3128  0
3129  1
3130  0
3131  1
3132  2
3133  0
3134  2
3135  1
3136  1
3137  5
3138  0
3139  1
3140  0
3141  1
3142  0
3143  0
3144  0
3145  1
3146  1
3147  1
3148  0
3149  1
3150  4
3151  0
3152  2
3153  1
3154  0
3155  0
3156  0
3157  0
3158  2
3159  2
3160  1
3161  1
3162  1
3163  2
3164  1
3165  1
3166  1
3167  1
3168  0
3169  1
3170  1
3171  1
3172  1
3173  2
3174  0
3175  0
3176  2
3177  0
3178  1
3179  2
3180  0
3181  1
3182  0
3183  1
3184  1
3185  1
3186  0
3187  0
3188  0
3189  1
3190  0
3191  3
3192  0
3193  0
3194  2
3195  3
3196  2
3197  0
3198  1
3199  1
3200  0
3201  2
3202  0
3203  0
3204  1
3205  1
3206  2
3207  0
3208  0
3209  1
3210  0
3211  1
3212  0
3213  0
3214  1
3215  0
3216  0
3217  1
3218  0
3219  1
3220  0
3221  0
3222  0
3223  1
3224  0
3225  3
3226  0
3227  2
3228  1
3229  0
3230  2
3231  1
3232  1
3233  2
3234  2
3235  2
3236  1
3237  0
3238  0
3239  2
3240  1
3241  0
3242  0
3243  0
3244  1
3245  0
3246  0
3247  2
3248  2
3249  0
3250  1
3251  1
3252  0
3253  1
3254  1
3255  1
3256  0
3257  0
3258  0
3259  0
3260  0
3261  1
3262  0
3263  0
3264  2
3265  1
3266  0
3267  0
3268  0
3269  0
3270  1
3271  0
3272  1
3273  2
3274  1
3275  0
3276  0
3277  0
3278  1
3279  0
3280  1
3281  0
3282  2
3283  2
3284  2
3285  1
3286  0
3287  1
3288  2
3289  0
3290  0
3291  1
3292  1
3293  0
3294  1
3295  2
3296  1
3297  2
3298  0
3299  2
3300  1
3301  1
3302  1
3303  0
3304  0
3305  0
3306  2
3307  2
3308  1
3309  0
3310  3
3311  0
3312  0
3313  0
3314  0
3315  0
3316  1
3317  2
3318  1
3319  2
3320  1
3321  0
3322  2
3323  1
3324  2
3325  1
3326  1
3327  0
3328  1
3329  0
3330  0
3331  1
3332  1
3333  0
3334  0
3335  0
3336  0
3337  0
3338  0
3339  0
3340  1
3341  1
3342  2
3343  2
3344  0
3345  0
3346  1
3347  0
3348  1
3349  0
3350  0
3351  0
3352  1
3353  0
3354  0
3355  1
3356  1
3357  0
3358  0
3359  0
3360  1
3361  0
3362  0
3363  2
3364  2
3365  1
3366  1
3367  1
3368  0
3369  1
3370  1
3371  0
3372  1
3373  2
3374  0
3375  2
3376  1
3377  0
3378  0
3379  1
3380  0
3381  1
3382  1
3383  0
3384  0
3385  1
3386  0
3387  0
3388  0
3389  0
3390  1
3391  1
3392  0
3393  1
3394  2
3395  1
3396  1
3397  1
3398  1
3399  0
3400  3
3401  0
3402  0
3403  1
3404  1
3405  1
3406  0
3407  1
3408  1
3409  0
3410  0
3411  1
3412  1
3413  0
3414  0
3415  2
3416  0
3417  0
3418  0
3419  0
3420  0
3421  0
3422  2
3423  0
3424  2
3425  0
3426  1
3427  0
3428  1
3429  0
3430  3
3431  0
3432  0
3433  1
3434  0
3435  0
3436  0
3437  2
3438  4
3439  0
3440  1
3441  0
3442  0
3443  0
3444  0
3445  0
3446  0
3447  3
3448  0
3449  1
3450  1
3451  1
3452  0
3453  0
3454  1
3455  0
3456  0
3457  0
3458  1
3459  1
3460  0
3461  1
3462  1
3463  0
3464  2
3465  1
3466  0
3467  0
3468  0
3469  0
3470  1
3471  0
3472  0
3473  0
3474  0
3475  0
3476  0
3477  1
3478  2
3479  1
3480  0
3481  1
3482  1
3483  0
3484  0
3485  0
3486  0
3487  0
3488  1
3489  1
3490  3
3491  0
3492  1
3493  3
3494  1
3495  2
3496  0
3497  1
3498  0
3499  2
3500  3
3501  0
3502  1
3503  1
3504  0
3505  0
3506  1
3507  2
3508  1
3509  2
3510  1
3511  1
3512  0
3513  1
3514  1
3515  0
3516  0
3517  1
3518  1
3519  0
3520  1
3521  0
3522  1
3523  1
3524  1
3525  3
3526  2
3527  0
3528  0
3529  0
3530  0
3531  1
3532  1
3533  0
3534  2
3535  1
3536  0
3537  0
3538  0
3539  1
3540  1
3541  0
3542  0
3543  1
3544  0
3545  0
3546  0
3547  0
3548  0
3549  0
3550  1
3551  0
3552  0
3553  1
3554  1
3555  1
3556  0
3557  1
3558  0
3559  0
3560  1
3561  0
3562  1
3563  0
3564  1
3565  1
3566  0
3567  2
3568  1
3569  1
3570  0
3571  0
3572  0
3573  0
3574  2
3575  1
3576  1
3577  1
3578  0
3579  0
3580  0
3581  1
3582  0
3583  1
3584  2
3585  0
3586  2
3587  1
3588  0
3589  2
3590  1
3591  0
3592  0
3593  1
3594  0
3595  0
3596  1
3597  1
3598  0
3599  0
3600  1
3601  1
3602  2
3603  1
3604  0
3605  0
3606  0
3607  2
3608  1
3609  0
3610  0
3611  0
3612  1
3613  0
3614  0
3615  0
3616  0
3617  1
3618  0
3619  0
3620  0
3621  0
3622  0
3623  0
3624  2
3625  1
3626  0
3627  0
3628  1
3629  1
3630  0
3631  0
3632  1
3633  0
3634  1
3635  0
3636  1
3637  0
3638  1
3639  0
3640  2
3641  1
3642  0
3643  0
3644  0
3645  0
3646  0
3647  0
3648  1
3649  0
3650  0
3651  1
3652  0
3653  0
3654  1
3655  0
3656  0
3657  1
3658  1
3659  0
3660  2
3661  0
3662  0
3663  0
3664  0
3665  0
3666  0
3667  0
3668  0
3669  0
3670  1
3671  0
3672  3
3673  0
3674  1
3675  0
3676  0
3677  0
3678  1
3679  0
3680  1
3681  0
3682  0
3683  0
3684  0
3685  0
3686  0
3687  0
3688  0
3689  1
3690  0
3691  0
3692  0
3693  1
3694  1
3695  0
3696  1
3697  0
3698  2
3699  1
3700  2
3701  0
3702  0
3703  0
3704  0
3705  1
3706  1
3707  0
3708  1
3709  0
3710  0
3711  0
3712  0
3713  1
3714  0
3715  1
3716  3
3717  0
3718  2
3719  0
3720  0
3721  0
3722  0
3723  1
3724  0
3725  0
3726  1
3727  0
3728  0
3729  0
3730  0
3731  0
3732  0
3733  1
3734  0
3735  1
3736  0
3737  0
3738  0
3739  0
3740  0
3741  0
3742  0
3743  0
3744  1
3745  1
3746  0
3747  0
3748  1
3749  1
3750  0
3751  0
3752  0
3753  0
3754  0
3755  0
3756  0
3757  0
3758  0
3759  1
3760  1
3761  0
3762  0
3763  1
3764  2
3765  0
3766  2
3767  0
3768  1
3769  2
3770  0
3771  2
3772  0
3773  1
3774  2
3775  1
3776  1
3777  0
3778  1
3779  2
3780  0
3781  0
3782  1
3783  1
3784  1
3785  0
3786  3
3787  1
3788  0
3789  0
3790  0
3791  3
3792  3
3793  0
3794  1
3795  0
3796  0
3797  2
3798  1
3799  1
3800  0
3801  3
3802  4
3803  5
3804  8
3805  7
3806  6
3807  11
3808  11
3809  17
3810  13
3811  14
3812  8
3813  10
3814  10
3815  10
3816  9
3817  6
3818  11
3819  13
3820  8
3821  13
3822  10
3823  4
3824  3
3825  5
3826  7
3827  3
3828  5
3829  4
3830  4
3831  1
3832  2
3833  2
3834  3
3835  3
3836  0
3837  0
3838  0
3839  0
3840  0
3841  0
3842  0
3843  0
3844  0
3845  0
3846  0
3847  0
3848  0
3849  0
3850  0
3851  0
3852  0
3853  0
3854  0
3855  0
3856  0
3857  0
3858  0
3859  0
3860  0
3861  0
3862  0
3863  0
3864  0
3865  0
3866  0
3867  0
3868  0
3869  0
3870  0
3871  0
3872  0
3873  0
3874  0
3875  0
3876  0
3877  0
3878  0
3879  0
3880  0
3881  0
3882  0
3883  0
3884  0
3885  0
3886  0
3887  0
3888  0
3889  0
3890  0
3891  0
3892  0
3893  0
3894  0
3895  0
3896  0
3897  0
3898  0
3899  0
3900  0
3901  0
3902  0
3903  0
3904  0
3905  0
3906  0
3907  0
3908  0
3909  0
3910  0
3911  0
3912  0
3913  0
3914  0
3915  0
3916  0
3917  0
3918  0
3919  0
3920  0
3921  0
3922  0
3923  0
3924  0
3925  0
3926  0
3927  0
3928  0
3929  0
3930  0
3931  0
3932  0
3933  0
3934  0
3935  0
3936  0
3937  0
3938  0
3939  0
3940  0
3941  0
3942  0
3943  0
3944  0
3945  0
3946  0
3947  0
3948  0
3949  0
3950  0
3951  0
3952  0
3953  0
3954  0
3955  0
3956  0
3957  0
3958  0
3959  0
3960  0
3961  0
3962  0
3963  0
3964  0
3965  0
3966  0
3967  0
3968  0
3969  0
3970  0
3971  0
3972  0
3973  0
3974  0
3975  0
3976  0
3977  0
3978  0
3979  0
3980  0
3981  0
3982  0
3983  0
3984  0
3985  0
3986  0
3987  0
3988  0
3989  0
3990  0
3991  0
3992  0
3993  0
3994  0
3995  0
3996  0
3997  0
3998  0
3999  0
4000  0
4001  0
4002  0
4003  0
4004  0
4005  0
4006  0
4007  0
4008  0
4009  0
4010  0
4011  0
4012  0
4013  0
4014  0
4015  0
4016  0
4017  0
4018  0
4019  0
4020  0
4021  0
4022  0
4023  0
4024  0
4025  0
4026  0
4027  0
4028  0
4029  0
4030  0
4031  0
4032  0
4033  0
4034  0
4035  0
4036  0
4037  0
4038  0
4039  0
4040  0
4041  0
4042  0
4043  0
4044  0
4045  0
4046  0
4047  0
4048  0
4049  0
4050  0
4051  0
4052  0
4053  0
4054  0
4055  0
4056  0
4057  0
4058  0
4059  0
4060  0
4061  0
4062  0
4063  0
4064  0
4065  0
4066  0
4067  0
4068  0
4069  0
4070  0
4071  0
4072  0
4073  0
4074  0
4075  0
4076  0
4077  0
4078  0
4079  0
4080  0
4081  0
4082  0
4083  0
4084  0
4085  0
4086  0
4087  0
4088  0
4089  0
4090  0
4091  0
4092  0
4093  0
4094  0
4095  0
