0  0
1  0
2  0
3  0
4  0
5  0
6  0
7  0
8  0
9  0
10  0
11  0
12  0
13  0
14  0
15  0
16  0
17  0
18  0
19  0
20  0
21  0
22  0
23  0
24  0
25  0
26  0
27  0
28  0
29  0
30  0
31  0
32  0
33  0
34  0
35  0
36  0
37  0
38  0
39  0
40  0
41  0
42  0
43  0
44  0
45  0
46  0
47  0
48  0
49  0
50  0
51  0
52  0
53  0
54  0
55  0
56  0
57  0
58  0
59  0
60  0
61  0
62  0
63  0
64  0
65  0
66  0
67  0
68  0
69  0
70  0
71  0
72  0
73  0
74  0
75  0
76  0
77  0
78  0
79  0
80  0
81  0
82  0
83  0
84  0
85  0
86  0
87  0
88  0
89  0
90  0
91  0
92  0
93  0
94  0
95  0
96  0
97  0
98  0
99  0
100  0
101  0
102  0
103  0
104  0
105  0
106  0
107  0
108  0
109  0
110  0
111  0
112  0
113  0
114  0
115  0
116  0
117  0
118  0
119  0
120  0
121  0
122  0
123  0
124  0
125  0
126  0
127  0
128  0
129  0
130  0
131  0
132  0
133  0
134  0
135  0
136  0
137  0
138  0
139  0
140  0
141  0
142  0
143  0
144  0
145  0
146  0
147  0
148  0
149  0
150  0
151  0
152  0
153  0
154  0
155  0
156  0
157  0
158  0
159  0
160  0
161  0
162  0
163  0
164  0
165  0
166  0
167  0
168  0
169  0
170  0
171  0
172  0
173  0
174  0
175  0
176  0
177  0
178  0
179  0
180  0
181  0
182  0
183  0
184  0
185  0
186  0
187  0
188  0
189  0
190  0
191  0
192  0
193  0
194  0
195  0
196  0
197  0
198  0
199  0
200  0
201  0
202  0
203  0
204  0
205  0
206  0
207  0
208  0
209  0
210  0
211  0
212  0
213  0
214  0
215  0
216  0
217  0
218  0
219  0
220  0
221  0
222  0
223  0
224  0
225  0
226  0
227  0
228  0
229  0
230  0
231  0
232  0
233  0
234  0
235  0
236  0
237  0
238  0
239  0
240  0
241  0
242  0
243  0
244  0
245  0
246  0
247  0
248  0
249  0
250  0
251  0
252  0
253  0
254  0
255  0
256  0
257  0
258  0
259  0
260  0
261  0
262  0
263  0
264  0
265  0
266  0
267  0
268  0
269  0
270  0
271  0
272  0
273  0
274  0
275  0
276  0
277  0
278  0
279  0
280  0
281  0
282  0
283  0
284  0
285  0
286  0
287  0
288  0
289  0
290  0
291  0
292  0
293  0
294  0
295  0
296  0
297  0
298  0
299  0
300  0
301  0
302  0
303  0
304  0
305  0
306  0
307  0
308  0
309  0
310  0
311  0
312  0
313  0
314  0
315  0
316  0
317  0
318  0
319  0
320  0
321  0
322  0
323  0
324  0
325  0
326  0
327  0
328  0
329  0
330  0
331  0
332  0
333  0
334  0
335  0
336  0
337  0
338  0
339  0
340  0
341  0
342  0
343  0
344  0
345  0
346  0
347  0
348  0
349  0
350  0
351  0
352  0
353  0
354  0
355  0
356  0
357  0
358  0
359  0
360  0
361  0
362  0
363  0
364  0
365  0
366  0
367  0
368  0
369  0
370  0
371  0
372  0
373  0
374  0
375  0
376  0
377  0
378  0
379  0
380  0
381  0
382  0
383  0
384  0
385  0
386  0
387  0
388  0
389  0
390  0
391  0
392  0
393  0
394  0
395  0
396  0
397  0
398  0
399  0
400  0
401  0
402  0
403  0
404  0
405  0
406  0
407  0
408  0
409  0
410  0
411  0
412  0
413  0
414  0
415  0
416  0
417  0
418  0
419  0
420  0
421  0
422  0
423  0
424  0
425  0
426  0
427  0
428  0
429  0
430  0
431  0
432  0
433  0
434  0
435  0
436  0
437  0
438  0
439  0
440  0
441  0
442  0
443  0
444  0
445  0
446  0
447  0
448  0
449  0
450  0
451  0
452  0
453  0
454  0
455  0
456  0
457  0
458  0
459  0
460  0
461  0
462  0
463  0
464  0
465  0
466  0
467  0
468  0
469  0
470  0
471  0
472  0
473  0
474  0
475  0
476  0
477  0
478  0
479  0
480  0
481  0
482  0
483  0
484  0
485  0
486  0
487  0
488  0
489  0
490  0
491  0
492  0
493  0
494  0
495  0
496  0
497  0
498  0
499  0
500  0
501  0
502  0
503  0
504  0
505  0
506  0
507  0
508  0
509  0
510  0
511  0
512  0
513  0
514  0
515  0
516  0
517  0
518  0
519  0
520  0
521  0
522  0
523  0
524  0
525  0
526  0
527  0
528  0
529  0
530  0
531  0
532  0
533  0
534  0
535  0
536  0
537  0
538  0
539  0
540  0
541  0
542  0
543  0
544  0
545  0
546  0
547  0
548  0
549  0
550  0
551  0
552  0
553  0
554  0
555  0
556  0
557  0
558  0
559  0
560  0
561  0
562  0
563  0
564  0
565  0
566  0
567  0
568  0
569  0
570  0
571  0
572  0
573  0
574  0
575  0
576  0
577  0
578  0
579  0
580  0
581  0
582  0
583  0
584  0
585  0
586  0
587  0
588  0
589  0
590  0
591  0
592  0
593  0
594  0
595  0
596  0
597  0
598  0
599  0
600  0
601  0
602  0
603  0
604  0
605  0
606  0
607  0
608  0
609  0
610  0
611  0
612  0
613  0
614  0
615  0
616  0
617  0
618  0
619  0
620  0
621  0
622  0
623  0
624  0
625  0
626  0
627  0
628  0
629  0
630  0
631  0
632  0
633  0
634  0
635  0
636  0
637  0
638  0
639  0
640  0
641  0
642  0
643  0
644  0
645  0
646  0
647  0
648  0
649  0
650  0
651  0
652  0
653  0
654  0
655  0
656  0
657  0
658  0
659  0
660  0
661  0
662  0
663  0
664  0
665  0
666  0
667  0
668  0
669  0
670  0
671  0
672  0
673  0
674  0
675  0
676  0
677  0
678  0
679  0
680  0
681  0
682  0
683  0
684  0
685  0
686  0
687  0
688  0
689  0
690  0
691  0
692  0
693  0
694  0
695  0
696  0
697  0
698  0
699  0
700  0
701  0
702  0
703  0
704  0
705  0
706  0
707  0
708  0
709  0
710  0
711  0
712  0
713  0
714  0
715  0
716  0
717  0
718  0
719  0
720  0
721  0
722  0
723  0
724  0
725  0
726  0
727  0
728  0
729  0
730  0
731  0
732  0
733  0
734  0
735  0
736  0
737  0
738  0
739  0
740  0
741  0
742  0
743  0
744  0
745  0
746  0
747  0
748  0
749  0
750  0
751  0
752  0
753  0
754  0
755  0
756  0
757  0
758  0
759  0
760  0
761  0
762  0
763  0
764  0
765  0
766  0
767  0
768  0
769  0
770  0
771  0
772  0
773  0
774  0
775  0
776  0
777  0
778  0
779  0
780  0
781  0
782  0
783  0
784  0
785  0
786  0
787  0
788  0
789  0
790  0
791  0
792  0
793  0
794  0
795  0
796  0
797  0
798  0
799  0
800  0
801  0
802  0
803  0
804  0
805  0
806  0
807  0
808  0
809  0
810  0
811  0
812  0
813  0
814  0
815  0
816  0
817  0
818  0
819  0
820  0
821  0
822  0
823  0
824  0
825  0
826  0
827  0
828  0
829  0
830  0
831  0
832  0
833  0
834  0
835  0
836  0
837  0
838  0
839  0
840  0
841  0
842  0
843  0
844  0
845  0
846  0
847  0
848  0
849  0
850  0
851  0
852  0
853  0
854  0
855  0
856  0
857  0
858  0
859  0
860  0
861  0
862  0
863  0
864  0
865  0
866  0
867  0
868  0
869  0
870  0
871  0
872  0
873  0
874  0
875  0
876  0
877  0
878  0
879  0
880  0
881  0
882  0
883  0
884  0
885  0
886  0
887  0
888  0
889  0
890  0
891  0
892  0
893  0
894  0
895  0
896  0
897  0
898  0
899  0
900  0
901  0
902  0
903  0
904  0
905  0
906  0
907  0
908  0
909  0
910  0
911  0
912  0
913  0
914  0
915  0
916  0
917  0
918  0
919  0
920  0
921  0
922  0
923  0
924  0
925  0
926  0
927  0
928  0
929  0
930  0
931  0
932  0
933  0
934  0
935  0
936  0
937  0
938  0
939  0
940  0
941  0
942  0
943  0
944  0
945  0
946  0
947  0
948  0
949  0
950  0
951  0
952  0
953  0
954  0
955  0
956  0
957  0
958  0
959  0
960  0
961  0
962  0
963  0
964  0
965  0
966  0
967  0
968  0
969  0
970  0
971  0
972  0
973  0
974  0
975  0
976  0
977  0
978  0
979  0
980  0
981  0
982  0
983  0
984  0
985  0
986  0
987  0
988  0
989  0
990  0
991  0
992  0
993  0
994  0
995  0
996  0
997  0
998  0
999  0
1000  0
1001  0
1002  0
1003  0
1004  0
1005  0
1006  0
1007  0
1008  0
1009  0
1010  0
1011  0
1012  0
1013  0
1014  0
1015  0
1016  0
1017  0
1018  0
1019  0
1020  0
1021  0
1022  0
1023  0
1024  0
1025  0
1026  0
1027  0
1028  0
1029  0
1030  0
1031  0
1032  0
1033  0
1034  0
1035  0
1036  0
1037  0
1038  0
1039  0
1040  0
1041  0
1042  0
1043  0
1044  0
1045  0
1046  0
1047  0
1048  0
1049  0
1050  0
1051  0
1052  0
1053  0
1054  0
1055  0
1056  0
1057  0
1058  0
1059  0
1060  0
1061  0
1062  0
1063  0
1064  0
1065  0
1066  0
1067  0
1068  0
1069  0
1070  0
1071  0
1072  0
1073  0
1074  0
1075  0
1076  0
1077  0
1078  0
1079  0
1080  0
1081  0
1082  0
1083  0
1084  0
1085  0
1086  0
1087  0
1088  0
1089  0
1090  0
1091  0
1092  0
1093  0
1094  0
1095  0
1096  0
1097  0
1098  0
1099  0
1100  0
1101  0
1102  0
1103  0
1104  0
1105  0
1106  0
1107  0
1108  0
1109  0
1110  0
1111  0
1112  0
1113  0
1114  0
1115  0
1116  0
1117  0
1118  0
1119  0
1120  0
1121  0
1122  0
1123  0
1124  0
1125  0
1126  0
1127  0
1128  0
1129  0
1130  0
1131  0
1132  0
1133  0
1134  0
1135  0
1136  0
1137  0
1138  0
1139  0
1140  0
1141  0
1142  0
1143  0
1144  0
1145  0
1146  0
1147  0
1148  0
1149  0
1150  0
1151  0
1152  0
1153  0
1154  0
1155  0
1156  0
1157  0
1158  0
1159  0
1160  0
1161  0
1162  0
1163  0
1164  0
1165  0
1166  0
1167  0
1168  0
1169  0
1170  0
1171  0
1172  0
1173  0
1174  0
1175  0
1176  0
1177  0
1178  0
1179  0
1180  0
1181  0
1182  0
1183  0
1184  0
1185  0
1186  0
1187  0
1188  0
1189  0
1190  0
1191  0
1192  0
1193  0
1194  0
1195  0
1196  0
1197  0
1198  0
1199  0
1200  0
1201  0
1202  0
1203  0
1204  0
1205  0
1206  0
1207  0
1208  0
1209  0
1210  0
1211  0
1212  0
1213  0
1214  0
1215  0
1216  0
1217  0
1218  0
1219  0
1220  0
1221  0
1222  0
1223  0
1224  0
1225  0
1226  0
1227  0
1228  0
1229  0
1230  0
1231  0
1232  0
1233  0
1234  0
1235  0
1236  0
1237  0
1238  0
1239  0
1240  0
1241  0
1242  0
1243  0
1244  0
1245  0
1246  0
1247  0
1248  0
1249  0
1250  0
1251  0
1252  0
1253  0
1254  0
1255  0
1256  0
1257  0
1258  0
1259  0
1260  0
1261  0
1262  0
1263  0
1264  0
1265  0
1266  0
1267  0
1268  0
1269  0
1270  0
1271  0
1272  0
1273  0
1274  0
1275  0
1276  0
1277  0
1278  0
1279  0
1280  0
1281  0
1282  0
1283  0
1284  0
1285  0
1286  0
1287  0
1288  0
1289  0
1290  0
1291  0
1292  0
1293  0
1294  0
1295  0
1296  0
1297  0
1298  0
1299  0
1300  0
1301  0
1302  0
1303  0
1304  0
1305  0
1306  0
1307  0
1308  0
1309  0
1310  0
1311  0
1312  0
1313  0
1314  0
1315  0
1316  0
1317  0
1318  0
1319  0
1320  0
1321  0
1322  0
1323  0
1324  0
1325  0
1326  0
1327  0
1328  0
1329  0
1330  0
1331  0
1332  0
1333  0
1334  0
1335  0
1336  0
1337  0
1338  0
1339  0
1340  0
1341  0
1342  0
1343  0
1344  0
1345  0
1346  0
1347  0
1348  0
1349  0
1350  0
1351  0
1352  0
1353  0
1354  0
1355  0
1356  0
1357  0
1358  0
1359  0
1360  0
1361  0
1362  0
1363  0
1364  0
1365  0
1366  0
1367  0
1368  0
1369  0
1370  0
1371  0
1372  0
1373  0
1374  0
1375  0
1376  0
1377  0
1378  0
1379  0
1380  0
1381  0
1382  0
1383  0
1384  0
1385  0
1386  0
1387  0
1388  0
1389  0
1390  0
1391  0
1392  0
1393  0
1394  0
1395  0
1396  0
1397  0
1398  0
1399  0
1400  0
1401  0
1402  0
1403  0
1404  0
1405  0
1406  0
1407  0
1408  0
1409  0
1410  0
1411  0
1412  0
1413  0
1414  0
1415  0
1416  0
1417  0
1418  0
1419  0
1420  0
1421  0
1422  0
1423  0
1424  0
1425  0
1426  0
1427  0
1428  0
1429  0
1430  0
1431  0
1432  0
1433  0
1434  0
1435  0
1436  0
1437  0
1438  0
1439  0
1440  0
1441  0
1442  0
1443  0
1444  0
1445  0
1446  0
1447  0
1448  0
1449  0
1450  0
1451  0
1452  0
1453  0
1454  0
1455  0
1456  0
1457  0
1458  0
1459  0
1460  0
1461  0
1462  0
1463  0
1464  0
1465  0
1466  0
1467  0
1468  0
1469  0
1470  0
1471  0
1472  0
1473  0
1474  0
1475  0
1476  0
1477  0
1478  0
1479  0
1480  0
1481  0
1482  0
1483  0
1484  0
1485  0
1486  0
1487  0
1488  0
1489  0
1490  0
1491  0
1492  0
1493  0
1494  0
1495  0
1496  0
1497  0
1498  0
1499  0
1500  0
1501  0
1502  0
1503  0
1504  0
1505  0
1506  0
1507  0
1508  0
1509  0
1510  0
1511  0
1512  0
1513  0
1514  0
1515  0
1516  0
1517  0
1518  0
1519  0
1520  0
1521  0
1522  0
1523  0
1524  0
1525  0
1526  0
1527  0
1528  0
1529  0
1530  0
1531  0
1532  0
1533  0
1534  0
1535  0
1536  0
1537  0
1538  0
1539  0
1540  0
1541  0
1542  0
1543  0
1544  0
1545  0
1546  0
1547  0
1548  0
1549  0
1550  0
1551  0
1552  0
1553  0
1554  0
1555  0
1556  0
1557  0
1558  0
1559  0
1560  0
1561  0
1562  0
1563  0
1564  0
1565  0
1566  0
1567  0
1568  0
1569  0
1570  0
1571  0
1572  0
1573  0
1574  0
1575  0
1576  0
1577  0
1578  0
1579  0
1580  0
1581  0
1582  0
1583  0
1584  0
1585  0
1586  0
1587  0
1588  0
1589  0
1590  0
1591  0
1592  0
1593  0
1594  0
1595  0
1596  0
1597  0
1598  0
1599  0
1600  0
1601  0
1602  0
1603  0
1604  0
1605  0
1606  0
1607  0
1608  0
1609  0
1610  0
1611  0
1612  0
1613  0
1614  0
1615  0
1616  0
1617  0
1618  0
1619  0
1620  0
1621  0
1622  0
1623  0
1624  0
1625  0
1626  0
1627  0
1628  0
1629  0
1630  0
1631  0
1632  0
1633  0
1634  0
1635  0
1636  0
1637  0
1638  0
1639  0
1640  0
1641  0
1642  0
1643  0
1644  0
1645  0
1646  0
1647  0
1648  0
1649  0
1650  0
1651  0
1652  0
1653  0
1654  0
1655  0
1656  0
1657  0
1658  0
1659  0
1660  0
1661  0
1662  0
1663  0
1664  0
1665  3
1666  82
1667  470
1668  845
1669  1048
1670  1035
1671  957
1672  994
1673  960
1674  942
1675  859
1676  879
1677  814
1678  848
1679  807
1680  740
1681  695
1682  625
1683  664
1684  585
1685  604
1686  579
1687  550
1688  524
1689  501
1690  492
1691  468
1692  449
1693  463
1694  415
1695  387
1696  389
1697  355
1698  373
1699  345
1700  348
1701  359
1702  320
1703  363
1704  304
1705  280
1706  265
1707  276
1708  256
1709  249
1710  210
1711  209
1712  236
1713  208
1714  215
1715  193
1716  154
1717  152
1718  184
1719  188
1720  165
1721  168
1722  151
1723  167
1724  162
1725  150
1726  149
1727  123
1728  134
1729  113
1730  116
1731  111
1732  109
1733  100
1734  122
1735  106
1736  102
1737  93
1738  93
1739  91
1740  85
1741  89
1742  77
1743  77
1744  79
1745  80
1746  71
1747  94
1748  50
1749  67
1750  70
1751  52
1752  61
1753  49
1754  74
1755  54
1756  62
1757  65
1758  53
1759  61
1760  45
1761  55
1762  67
1763  56
1764  42
1765  42
1766  49
1767  54
1768  48
1769  36
1770  53
1771  44
1772  32
1773  30
1774  29
1775  52
1776  57
1777  45
1778  40
1779  39
1780  43
1781  46
1782  32
1783  31
1784  47
1785  40
1786  41
1787  38
1788  45
1789  48
1790  47
1791  55
1792  45
1793  51
1794  32
1795  47
1796  60
1797  43
1798  44
1799  49
1800  39
1801  43
1802  37
1803  50
1804  34
1805  56
1806  44
1807  59
1808  62
1809  60
1810  38
1811  40
1812  62
1813  39
1814  52
1815  55
1816  59
1817  62
1818  67
1819  55
1820  74
1821  49
1822  81
1823  65
1824  72
1825  79
1826  70
1827  70
1828  66
1829  64
1830  87
1831  67
1832  68
1833  80
1834  92
1835  67
1836  103
1837  82
1838  89
1839  99
1840  98
1841  91
1842  93
1843  94
1844  96
1845  99
1846  131
1847  134
1848  130
1849  110
1850  129
1851  121
1852  141
1853  148
1854  132
1855  136
1856  126
1857  169
1858  168
1859  152
1860  145
1861  175
1862  171
1863  191
1864  156
1865  177
1866  161
1867  206
1868  175
1869  199
1870  201
1871  220
1872  246
1873  193
1874  226
1875  220
1876  259
1877  225
1878  243
1879  271
1880  262
1881  277
1882  254
1883  266
1884  276
1885  276
1886  275
1887  291
1888  280
1889  302
1890  303
1891  301
1892  323
1893  340
1894  353
1895  357
1896  322
1897  321
1898  340
1899  370
1900  397
1901  352
1902  403
1903  421
1904  373
1905  382
1906  369
1907  386
1908  424
1909  386
1910  431
1911  440
1912  410
1913  455
1914  472
1915  471
1916  459
1917  479
1918  485
1919  530
1920  492
1921  549
1922  517
1923  522
1924  548
1925  560
1926  539
1927  517
1928  546
1929  546
1930  553
1931  605
1932  600
1933  637
1934  654
1935  626
1936  641
1937  616
1938  643
1939  645
1940  606
1941  661
1942  649
1943  630
1944  646
1945  693
1946  693
1947  691
1948  653
1949  709
1950  729
1951  684
1952  732
1953  688
1954  733
1955  665
1956  721
1957  747
1958  728
1959  749
1960  740
1961  738
1962  748
1963  782
1964  715
1965  774
1966  747
1967  814
1968  776
1969  787
1970  809
1971  779
1972  853
1973  812
1974  835
1975  777
1976  851
1977  821
1978  815
1979  856
1980  888
1981  810
1982  877
1983  844
1984  824
1985  814
1986  877
1987  798
1988  855
1989  858
1990  888
1991  849
1992  844
1993  828
1994  859
1995  868
1996  849
1997  784
1998  850
1999  865
2000  869
2001  884
2002  904
2003  897
2004  821
2005  815
2006  917
2007  880
2008  853
2009  890
2010  840
2011  887
2012  875
2013  898
2014  832
2015  916
2016  903
2017  921
2018  872
2019  873
2020  861
2021  939
2022  869
2023  825
2024  857
2025  892
2026  866
2027  843
2028  902
2029  836
2030  907
2031  836
2032  866
2033  862
2034  890
2035  850
2036  912
2037  826
2038  829
2039  843
2040  844
2041  862
2042  889
2043  862
2044  875
2045  848
2046  830
2047  820
2048  871
2049  848
2050  819
2051  823
2052  783
2053  788
2054  863
2055  836
2056  771
2057  834
2058  825
2059  834
2060  814
2061  726
2062  819
2063  785
2064  799
2065  783
2066  744
2067  782
2068  810
2069  745
2070  748
2071  719
2072  762
2073  791
2074  812
2075  751
2076  760
2077  776
2078  720
2079  772
2080  742
2081  752
2082  721
2083  668
2084  737
2085  733
2086  691
2087  747
2088  697
2089  709
2090  735
2091  693
2092  714
2093  689
2094  725
2095  672
2096  716
2097  654
2098  645
2099  697
2100  650
2101  649
2102  675
2103  657
2104  610
2105  609
2106  648
2107  614
2108  647
2109  646
2110  644
2111  622
2112  621
2113  580
2114  632
2115  595
2116  542
2117  665
2118  652
2119  610
2120  592
2121  605
2122  555
2123  591
2124  575
2125  602
2126  588
2127  623
2128  549
2129  535
2130  562
2131  564
2132  604
2133  564
2134  585
2135  521
2136  539
2137  546
2138  571
2139  548
2140  580
2141  498
2142  471
2143  549
2144  555
2145  516
2146  471
2147  499
2148  514
2149  488
2150  503
2151  476
2152  496
2153  505
2154  476
2155  474
2156  475
2157  475
2158  491
2159  477
2160  428
2161  472
2162  455
2163  466
2164  471
2165  434
2166  454
2167  424
2168  485
2169  431
2170  480
2171  453
2172  447
2173  418
2174  411
2175  407
2176  395
2177  424
2178  417
2179  437
2180  395
2181  427
2182  378
2183  362
2184  409
2185  404
2186  373
2187  363
2188  354
2189  365
2190  379
2191  344
2192  365
2193  363
2194  371
2195  363
2196  315
2197  365
2198  392
2199  342
2200  333
2201  335
2202  304
2203  358
2204  332
2205  334
2206  335
2207  318
2208  336
2209  339
2210  340
2211  339
2212  286
2213  297
2214  314
2215  340
2216  325
2217  335
2218  290
2219  322
2220  294
2221  284
2222  300
2223  326
2224  328
2225  301
2226  268
2227  301
2228  300
2229  274
2230  280
2231  251
2232  285
2233  288
2234  269
2235  305
2236  275
2237  265
2238  272
2239  303
2240  272
2241  263
2242  261
2243  261
2244  264
2245  250
2246  269
2247  245
2248  241
2249  227
2250  244
2251  242
2252  230
2253  248
2254  240
2255  238
2256  236
2257  221
2258  233
2259  236
2260  240
2261  213
2262  245
2263  221
2264  205
2265  231
2266  223
2267  240
2268  209
2269  215
2270  217
2271  219
2272  217
2273  171
2274  196
2275  207
2276  205
2277  216
2278  195
2279  192
2280  232
2281  194
2282  169
2283  208
2284  166
2285  192
2286  203
2287  162
2288  193
2289  173
2290  194
2291  172
2292  192
2293  167
2294  191
2295  169
2296  175
2297  212
2298  147
2299  167
2300  140
2301  163
2302  153
2303  169
2304  156
2305  155
2306  133
2307  158
2308  178
2309  172
2310  141
2311  147
2312  150
2313  144
2314  160
2315  150
2316  156
2317  142
2318  147
2319  148
2320  140
2321  138
2322  143
2323  143
2324  138
2325  165
2326  139
2327  159
2328  144
2329  157
2330  117
2331  136
2332  137
2333  143
2334  126
2335  120
2336  133
2337  144
2338  109
2339  133
2340  129
2341  124
2342  155
2343  123
2344  130
2345  104
2346  113
2347  112
2348  107
2349  112
2350  105
2351  113
2352  108
2353  104
2354  112
2355  112
2356  115
2357  123
2358  118
2359  116
2360  123
2361  114
2362  113
2363  129
2364  101
2365  102
2366  116
2367  97
2368  100
2369  106
2370  111
2371  112
2372  96
2373  116
2374  104
2375  98
2376  92
2377  117
2378  80
2379  88
2380  98
2381  102
2382  81
2383  94
2384  95
2385  86
2386  90
2387  78
2388  103
2389  69
2390  97
2391  83
2392  74
2393  92
2394  83
2395  86
2396  80
2397  95
2398  82
2399  90
2400  69
2401  93
2402  78
2403  73
2404  84
2405  91
2406  89
2407  91
2408  97
2409  86
2410  71
2411  67
2412  75
2413  77
2414  70
2415  80
2416  68
2417  65
2418  89
2419  62
2420  75
2421  75
2422  75
2423  58
2424  74
2425  72
2426  78
2427  84
2428  56
2429  58
2430  77
2431  60
2432  67
2433  59
2434  82
2435  65
2436  49
2437  71
2438  68
2439  72
2440  65
2441  50
2442  59
2443  46
2444  54
2445  60
2446  50
2447  59
2448  56
2449  53
2450  59
2451  57
2452  59
2453  59
2454  65
2455  55
2456  58
2457  56
2458  56
2459  56
2460  52
2461  57
2462  65
2463  50
2464  54
2465  45
2466  58
2467  60
2468  60
2469  68
2470  42
2471  39
2472  46
2473  59
2474  54
2475  51
2476  51
2477  50
2478  42
2479  38
2480  53
2481  52
2482  42
2483  49
2484  52
2485  49
2486  43
2487  44
2488  48
2489  47
2490  39
2491  54
2492  40
2493  51
2494  57
2495  34
2496  46
2497  44
2498  45
2499  36
2500  38
2501  54
2502  38
2503  33
2504  45
2505  40
2506  37
2507  38
2508  40
2509  48
2510  43
2511  43
2512  34
2513  35
2514  45
2515  41
2516  30
2517  31
2518  44
2519  43
2520  37
2521  36
2522  46
2523  24
2524  34
2525  35
2526  38
2527  44
2528  31
2529  30
2530  36
2531  42
2532  32
2533  29
2534  29
2535  30
2536  34
2537  33
2538  45
2539  37
2540  34
2541  30
2542  37
2543  39
2544  39
2545  33
2546  28
2547  30
2548  27
2549  33
2550  27
2551  19
2552  46
2553  38
2554  35
2555  36
2556  26
2557  28
2558  23
2559  31
2560  26
2561  27
2562  26
2563  28
2564  33
2565  25
2566  44
2567  27
2568  18
2569  32
2570  31
2571  35
2572  28
2573  19
2574  31
2575  34
2576  21
2577  16
2578  24
2579  23
2580  33
2581  22
2582  27
2583  19
2584  29
2585  29
2586  22
2587  40
2588  20
2589  29
2590  26
2591  27
2592  22
2593  19
2594  25
2595  32
2596  13
2597  22
2598  27
2599  28
2600  22
2601  15
2602  12
2603  27
2604  21
2605  22
2606  22
2607  19
2608  25
2609  10
2610  23
2611  17
2612  20
2613  20
2614  19
2615  26
2616  21
2617  16
2618  20
2619  20
2620  12
2621  28
2622  18
2623  19
2624  20
2625  29
2626  25
2627  19
2628  19
2629  19
2630  15
2631  27
2632  16
2633  18
2634  16
2635  21
2636  16
2637  12
2638  22
2639  18
2640  12
2641  26
2642  17
2643  31
2644  19
2645  18
2646  19
2647  20
2648  17
2649  21
2650  23
2651  26
2652  13
2653  15
2654  18
2655  24
2656  17
2657  16
2658  18
2659  22
2660  13
2661  18
2662  13
2663  12
2664  14
2665  24
2666  21
2667  13
2668  20
2669  15
2670  11
2671  16
2672  13
2673  16
2674  28
2675  25
2676  17
2677  12
2678  20
2679  19
2680  17
2681  15
2682  13
2683  16
2684  16
2685  19
2686  18
2687  13
2688  16
2689  12
2690  8
2691  16
2692  9
2693  9
2694  21
2695  15
2696  20
2697  12
2698  15
2699  12
2700  10
2701  19
2702  15
2703  12
2704  19
2705  15
2706  20
2707  13
2708  13
2709  25
2710  13
2711  12
2712  18
2713  10
2714  10
2715  13
2716  8
2717  19
2718  12
2719  13
2720  17
2721  6
2722  12
2723  8
2724  7
2725  12
2726  15
2727  11
2728  11
2729  7
2730  11
2731  18
2732  15
2733  13
2734  11
2735  12
2736  9
2737  10
2738  10
2739  6
2740  6
2741  14
2742  11
2743  13
2744  9
2745  20
2746  16
2747  4
2748  11
2749  8
2750  12
2751  11
2752  15
2753  10
2754  10
2755  9
2756  16
2757  13
2758  7
2759  12
2760  4
2761  16
2762  6
2763  3
2764  13
2765  9
2766  10
2767  9
2768  7
2769  14
2770  12
2771  10
2772  14
2773  13
2774  14
2775  9
2776  10
2777  11
2778  3
2779  10
2780  15
2781  13
2782  11
2783  10
2784  13
2785  7
2786  8
2787  7
2788  6
2789  9
2790  11
2791  12
2792  11
2793  11
2794  7
2795  11
2796  13
2797  10
2798  13
2799  8
2800  17
2801  6
2802  6
2803  9
2804  8
2805  7
2806  6
2807  9
2808  10
2809  8
2810  11
2811  11
2812  11
2813  20
2814  15
2815  9
2816  7
2817  9
2818  9
2819  13
2820  10
2821  5
2822  5
2823  10
2824  9
2825  11
2826  10
2827  8
2828  8
2829  8
2830  7
2831  9
2832  5
2833  5
2834  5
2835  5
2836  11
2837  7
2838  4
2839  10
2840  9
2841  11
2842  8
2843  7
2844  9
2845  9
2846  5
2847  7
2848  6
2849  10
2850  6
2851  3
2852  9
2853  9
2854  6
2855  5
2856  7
2857  9
2858  1
2859  4
2860  13
2861  4
2862  12
2863  4
2864  8
2865  7
2866  5
2867  12
2868  8
2869  5
2870  2
2871  1
2872  8
2873  11
2874  4
2875  9
2876  7
2877  7
2878  2
2879  8
2880  7
2881  6
2882  6
2883  7
2884  5
2885  10
2886  6
2887  4
2888  6
2889  7
2890  5
2891  6
2892  5
2893  3
2894  6
2895  5
2896  5
2897  11
2898  6
2899  5
2900  6
2901  10
2902  3
2903  6
2904  5
2905  6
2906  4
2907  14
2908  3
2909  7
2910  6
2911  5
2912  4
2913  4
2914  5
2915  6
2916  3
2917  4
2918  8
2919  9
2920  5
2921  5
2922  10
2923  3
2924  2
2925  3
2926  7
2927  8
2928  2
2929  4
2930  7
2931  4
2932  2
2933  4
2934  5
2935  4
2936  8
2937  3
2938  2
2939  3
2940  3
2941  4
2942  6
2943  9
2944  5
2945  5
2946  4
2947  4
2948  8
2949  7
2950  3
2951  6
2952  4
2953  6
2954  10
2955  2
2956  6
2957  7
2958  2
2959  6
2960  5
2961  2
2962  5
2963  7
2964  0
2965  8
2966  4
2967  3
2968  8
2969  4
2970  4
2971  2
2972  8
2973  4
2974  5
2975  3
2976  6
2977  6
2978  2
2979  4
2980  5
2981  3
2982  5
2983  4
2984  8
2985  6
2986  3
2987  7
2988  3
2989  3
2990  2
2991  9
2992  1
2993  2
2994  3
2995  4
2996  7
2997  1
2998  3
2999  1
3000  8
3001  0
3002  7
3003  4
3004  5
3005  6
3006  5
3007  1
3008  5
3009  2
3010  5
3011  4
3012  3
3013  3
3014  4
3015  2
3016  7
3017  3
3018  2
3019  3
3020  2
3021  4
3022  2
3023  5
3024  4
3025  4
3026  1
3027  4
3028  7
3029  3
3030  4
3031  2
3032  0
3033  1
3034  0
3035  3
3036  2
3037  6
3038  4
3039  5
3040  1
3041  4
3042  11
3043  6
3044  4
3045  5
3046  4
3047  8
3048  5
3049  6
3050  1
3051  0
3052  1
3053  2
3054  2
3055  3
3056  2
3057  4
3058  2
3059  3
3060  6
3061  9
3062  2
3063  4
3064  5
3065  2
3066  3
3067  2
3068  2
3069  2
3070  6
3071  2
3072  6
3073  2
3074  5
3075  2
3076  1
3077  5
3078  2
3079  2
3080  6
3081  2
3082  4
3083  4
3084  4
3085  1
3086  4
3087  3
3088  2
3089  5
3090  5
3091  3
3092  6
3093  6
3094  1
3095  2
3096  5
3097  1
3098  2
3099  5
3100  4
3101  2
3102  0
3103  1
3104  1
3105  2
3106  3
3107  1
3108  0
3109  3
3110  1
3111  5
3112  3
3113  3
3114  1
3115  1
3116  1
3117  2
3118  0
3119  7
3120  3
3121  4
3122  5
3123  3
3124  2
3125  2
3126  4
3127  2
3128  3
3129  2
3130  8
3131  1
3132  2
3133  0
3134  1
3135  2
3136  4
3137  1
3138  2
3139  1
3140  3
3141  3
3142  4
3143  3
3144  4
3145  4
3146  4
3147  4
3148  2
3149  1
3150  4
3151  2
3152  3
3153  2
3154  1
3155  3
3156  4
3157  2
3158  3
3159  2
3160  3
3161  0
3162  5
3163  3
3164  2
3165  4
3166  1
3167  2
3168  3
3169  3
3170  2
3171  3
3172  2
3173  3
3174  1
3175  4
3176  5
3177  1
3178  1
3179  1
3180  1
3181  3
3182  1
3183  3
3184  4
3185  2
3186  4
3187  2
3188  0
3189  3
3190  3
3191  3
3192  5
3193  3
3194  3
3195  1
3196  1
3197  2
3198  1
3199  1
3200  6
3201  2
3202  3
3203  1
3204  0
3205  3
3206  2
3207  3
3208  5
3209  3
3210  2
3211  1
3212  3
3213  2
3214  2
3215  1
3216  1
3217  2
3218  1
3219  3
3220  1
3221  0
3222  2
3223  3
3224  4
3225  4
3226  1
3227  1
3228  4
3229  2
3230  2
3231  1
3232  3
3233  4
3234  1
3235  2
3236  1
3237  6
3238  1
3239  2
3240  1
3241  1
3242  1
3243  0
3244  2
3245  3
3246  1
3247  2
3248  2
3249  4
3250  3
3251  6
3252  1
3253  1
3254  2
3255  0
3256  1
3257  1
3258  0
3259  4
3260  3
3261  1
3262  2
3263  1
3264  2
3265  3
3266  4
3267  2
3268  3
3269  2
3270  2
3271  2
3272  2
3273  0
3274  1
3275  0
3276  2
3277  4
3278  2
3279  0
3280  5
3281  1
3282  1
3283  4
3284  2
3285  1
3286  1
3287  0
3288  1
3289  1
3290  2
3291  1
3292  3
3293  2
3294  0
3295  4
3296  2
3297  2
3298  1
3299  0
3300  3
3301  0
3302  2
3303  3
3304  6
3305  4
3306  0
3307  1
3308  2
3309  0
3310  1
3311  4
3312  4
3313  2
3314  0
3315  0
3316  0
3317  3
3318  2
3319  2
3320  2
3321  0
3322  2
3323  2
3324  0
3325  2
3326  1
3327  2
3328  0
3329  0
3330  1
3331  0
3332  1
3333  1
3334  3
3335  0
3336  3
3337  1
3338  1
3339  0
3340  2
3341  1
3342  2
3343  0
3344  1
3345  2
3346  0
3347  3
3348  0
3349  0
3350  0
3351  4
3352  1
3353  2
3354  0
3355  1
3356  0
3357  3
3358  2
3359  0
3360  1
3361  1
3362  1
3363  0
3364  0
3365  3
3366  2
3367  1
3368  3
3369  2
3370  0
3371  3
3372  0
3373  3
3374  0
3375  1
3376  2
3377  1
3378  1
3379  1
3380  2
3381  1
3382  1
3383  0
3384  1
3385  2
3386  1
3387  1
3388  3
3389  2
3390  2
3391  0
3392  1
3393  1
3394  2
3395  0
3396  0
3397  2
3398  2
3399  3
3400  1
3401  4
3402  0
3403  0
3404  2
3405  0
3406  1
3407  3
3408  3
3409  1
3410  0
3411  3
3412  2
3413  3
3414  0
3415  1
3416  0
3417  2
3418  2
3419  2
3420  0
3421  0
3422  1
3423  2
3424  1
3425  0
3426  0
3427  1
3428  2
3429  0
3430  1
3431  1
3432  0
3433  1
3434  0
3435  1
3436  1
3437  0
3438  1
3439  1
3440  0
3441  0
3442  3
3443  0
3444  0
3445  3
3446  1
3447  0
3448  0
3449  1
3450  1
3451  1
3452  3
3453  0
3454  1
3455  0
3456  0
3457  1
3458  0
3459  1
3460  3
3461  1
3462  0
3463  0
3464  1
3465  0
3466  0
3467  3
3468  1
3469  0
3470  0
3471  1
3472  1
3473  0
3474  0
3475  1
3476  3
3477  0
3478  1
3479  0
3480  0
3481  1
3482  1
3483  2
3484  0
3485  1
3486  1
3487  1
3488  1
3489  1
3490  3
3491  0
3492  1
3493  2
3494  0
3495  0
3496  1
3497  0
3498  0
3499  4
3500  0
3501  1
3502  1
3503  1
3504  0
3505  1
3506  4
3507  1
3508  0
3509  0
3510  1
3511  2
3512  1
3513  1
3514  4
3515  0
3516  0
3517  1
3518  2
3519  1
3520  1
3521  0
3522  1
3523  1
3524  1
3525  0
3526  2
3527  0
3528  1
3529  0
3530  2
3531  1
3532  1
3533  3
3534  0
3535  0
3536  0
3537  0
3538  0
3539  0
3540  0
3541  0
3542  4
3543  0
3544  1
3545  0
3546  0
3547  0
3548  0
3549  2
3550  0
3551  0
3552  1
3553  1
3554  1
3555  0
3556  1
3557  0
3558  1
3559  0
3560  0
3561  1
3562  2
3563  0
3564  0
3565  1
3566  3
3567  0
3568  0
3569  0
3570  0
3571  1
3572  0
3573  1
3574  3
3575  0
3576  2
3577  1
3578  1
3579  1
3580  0
3581  0
3582  0
3583  0
3584  0
3585  2
3586  1
3587  0
3588  0
3589  0
3590  1
3591  0
3592  0
3593  1
3594  0
3595  1
3596  0
3597  2
3598  1
3599  1
3600  1
3601  2
3602  0
3603  0
3604  0
3605  2
3606  1
3607  1
3608  0
3609  2
3610  0
3611  1
3612  1
3613  1
3614  1
3615  1
3616  0
3617  1
3618  2
3619  0
3620  0
3621  0
3622  1
3623  0
3624  0
3625  0
3626  1
3627  0
3628  1
3629  3
3630  3
3631  1
3632  0
3633  0
3634  1
3635  2
3636  0
3637  1
3638  0
3639  1
3640  0
3641  1
3642  1
3643  2
3644  0
3645  2
3646  1
3647  0
3648  0
3649  0
3650  0
3651  0
3652  2
3653  0
3654  0
3655  2
3656  0
3657  1
3658  0
3659  1
3660  2
3661  0
3662  0
3663  0
3664  1
3665  1
3666  1
3667  0
3668  0
3669  3
3670  0
3671  0
3672  1
3673  0
3674  1
3675  1
3676  1
3677  1
3678  1
3679  0
3680  2
3681  0
3682  1
3683  0
3684  1
3685  1
3686  0
3687  3
3688  1
3689  0
3690  0
3691  0
3692  1
3693  2
3694  1
3695  1
3696  0
3697  0
3698  0
3699  1
3700  0
3701  0
3702  0
3703  1
3704  0
3705  1
3706  0
3707  1
3708  1
3709  0
3710  1
3711  0
3712  0
3713  0
3714  3
3715  0
3716  1
3717  2
3718  0
3719  0
3720  1
3721  0
3722  1
3723  0
3724  0
3725  0
3726  1
3727  0
3728  0
3729  0
3730  1
3731  0
3732  0
3733  0
3734  2
3735  1
3736  0
3737  0
3738  2
3739  1
3740  0
3741  1
3742  1
3743  0
3744  0
3745  0
3746  1
3747  0
3748  1
3749  0
3750  0
3751  0
3752  1
3753  0
3754  1
3755  0
3756  0
3757  1
3758  0
3759  1
3760  1
3761  1
3762  0
3763  0
3764  2
3765  0
3766  0
3767  1
3768  1
3769  0
3770  0
3771  0
3772  0
3773  0
3774  0
3775  0
3776  0
3777  0
3778  0
3779  0
3780  0
3781  0
3782  0
3783  0
3784  2
3785  0
3786  0
3787  0
3788  1
3789  0
3790  0
3791  0
3792  0
3793  0
3794  1
3795  0
3796  0
3797  0
3798  3
3799  0
3800  0
3801  0
3802  0
3803  0
3804  0
3805  0
3806  1
3807  0
3808  1
3809  1
3810  0
3811  0
3812  0
3813  2
3814  1
3815  0
3816  0
3817  0
3818  0
3819  0
3820  0
3821  1
3822  0
3823  0
3824  2
3825  0
3826  0
3827  0
3828  1
3829  0
3830  0
3831  0
3832  0
3833  0
3834  0
3835  0
3836  0
3837  0
3838  0
3839  2
3840  0
3841  0
3842  0
3843  0
3844  0
3845  0
3846  0
3847  0
3848  0
3849  0
3850  0
3851  0
3852  0
3853  0
3854  0
3855  0
3856  0
3857  0
3858  0
3859  0
3860  0
3861  0
3862  0
3863  0
3864  0
3865  0
3866  0
3867  0
3868  0
3869  0
3870  0
3871  0
3872  0
3873  0
3874  0
3875  0
3876  0
3877  0
3878  0
3879  0
3880  0
3881  0
3882  0
3883  0
3884  0
3885  0
3886  0
3887  0
3888  0
3889  0
3890  0
3891  0
3892  0
3893  0
3894  0
3895  0
3896  0
3897  0
3898  0
3899  0
3900  0
3901  0
3902  0
3903  0
3904  0
3905  0
3906  0
3907  0
3908  0
3909  0
3910  0
3911  0
3912  0
3913  0
3914  0
3915  0
3916  0
3917  0
3918  0
3919  0
3920  0
3921  0
3922  0
3923  0
3924  0
3925  0
3926  0
3927  0
3928  0
3929  0
3930  0
3931  0
3932  0
3933  0
3934  0
3935  0
3936  0
3937  0
3938  0
3939  0
3940  0
3941  0
3942  0
3943  0
3944  0
3945  0
3946  0
3947  0
3948  0
3949  0
3950  0
3951  0
3952  0
3953  0
3954  0
3955  0
3956  0
3957  0
3958  0
3959  0
3960  0
3961  0
3962  0
3963  0
3964  0
3965  0
3966  0
3967  0
3968  0
3969  0
3970  0
3971  0
3972  0
3973  0
3974  0
3975  0
3976  0
3977  0
3978  0
3979  0
3980  0
3981  0
3982  0
3983  0
3984  0
3985  0
3986  0
3987  0
3988  0
3989  0
3990  0
3991  0
3992  0
3993  0
3994  0
3995  0
3996  0
3997  0
3998  0
3999  0
4000  0
4001  0
4002  0
4003  0
4004  0
4005  0
4006  0
4007  0
4008  0
4009  0
4010  0
4011  0
4012  0
4013  0
4014  0
4015  0
4016  0
4017  0
4018  0
4019  0
4020  0
4021  0
4022  0
4023  0
4024  0
4025  0
4026  0
4027  0
4028  0
4029  0
4030  0
4031  0
4032  0
4033  0
4034  0
4035  0
4036  0
4037  0
4038  0
4039  0
4040  0
4041  0
4042  0
4043  0
4044  0
4045  0
4046  0
4047  0
4048  0
4049  0
4050  0
4051  0
4052  0
4053  0
4054  0
4055  0
4056  0
4057  0
4058  0
4059  0
4060  0
4061  0
4062  0
4063  0
4064  0
4065  0
4066  0
4067  0
4068  0
4069  0
4070  0
4071  0
4072  0
4073  0
4074  0
4075  0
4076  0
4077  0
4078  0
4079  0
4080  0
4081  0
4082  0
4083  0
4084  0
4085  0
4086  0
4087  0
4088  0
4089  0
4090  0
4091  0
4092  0
4093  0
4094  0
4095  0
