0  0
1  0
2  0
3  0
4  0
5  0
6  0
7  0
8  0
9  0
10  0
11  0
12  0
13  0
14  0
15  0
16  0
17  4
18  69
19  280
20  378
21  315
22  137
23  69
24  51
25  53
26  43
27  46
28  69
29  50
30  51
31  71
32  47
33  60
34  54
35  58
36  46
37  38
38  47
39  45
40  44
41  46
42  38
43  27
44  17
45  10
46  3
47  2
48  1
49  1
50  0
51  0
52  0
53  0
54  0
55  0
56  0
57  0
58  0
59  0
60  0
61  0
62  0
63  0
64  0
65  0
66  0
67  0
68  0
69  0
70  0
71  0
72  0
73  0
74  0
75  0
76  0
77  0
78  0
79  0
80  0
81  0
82  0
83  0
84  0
85  0
86  0
87  0
88  0
89  0
90  0
91  0
92  0
93  0
94  0
95  0
96  0
97  0
98  0
99  0
100  0
101  0
102  0
103  0
104  0
105  0
106  0
107  0
108  0
109  0
110  0
111  0
112  0
113  0
114  0
115  0
116  0
117  0
118  0
119  0
120  0
121  0
122  0
123  0
124  0
125  0
126  0
127  0
128  0
129  0
130  0
131  0
132  0
133  0
134  0
135  0
136  0
137  0
138  0
139  0
140  0
141  0
142  0
143  0
144  0
145  0
146  0
147  0
148  0
149  0
150  0
151  0
152  0
153  0
154  0
155  0
156  0
157  0
158  0
159  0
160  0
161  0
162  0
163  0
164  0
165  0
166  0
167  0
168  0
169  0
170  0
171  0
172  0
173  0
174  0
175  0
176  0
177  0
178  0
179  22
180  352
181  987
182  1195
183  1103
184  2129
185  4361
186  5292
187  3957
188  2124
189  1257
190  851
191  709
192  668
193  573
194  518
195  477
196  472
197  448
198  428
199  461
200  444
201  444
202  453
203  447
204  430
205  423
206  464
207  432
208  450
209  424
210  431
211  416
212  447
213  429
214  434
215  406
216  442
217  460
218  440
219  414
220  456
221  412
222  428
223  424
224  433
225  431
226  428
227  397
228  423
229  408
230  439
231  432
232  392
233  424
234  429
235  459
236  422
237  416
238  410
239  415
240  446
241  411
242  422
243  422
244  436
245  416
246  423
247  392
248  473
249  464
250  440
251  421
252  402
253  424
254  416
255  437
256  427
257  402
258  400
259  406
260  422
261  435
262  419
263  422
264  403
265  458
266  417
267  455
268  447
269  407
270  414
271  387
272  402
273  441
274  395
275  411
276  451
277  428
278  425
279  433
280  391
281  384
282  405
283  440
284  437
285  414
286  441
287  434
288  395
289  433
290  436
291  407
292  412
293  409
294  439
295  419
296  437
297  450
298  420
299  422
300  404
301  418
302  425
303  377
304  471
305  422
306  445
307  442
308  446
309  425
310  437
311  444
312  416
313  416
314  406
315  461
316  447
317  426
318  430
319  433
320  418
321  461
322  427
323  375
324  459
325  466
326  458
327  446
328  418
329  470
330  438
331  450
332  462
333  408
334  435
335  445
336  427
337  430
338  442
339  455
340  433
341  393
342  426
343  428
344  427
345  425
346  470
347  425
348  427
349  420
350  435
351  410
352  410
353  443
354  444
355  474
356  435
357  452
358  416
359  438
360  494
361  434
362  412
363  447
364  435
365  433
366  416
367  461
368  384
369  451
370  451
371  443
372  430
373  464
374  429
375  435
376  393
377  432
378  421
379  457
380  425
381  418
382  448
383  389
384  416
385  394
386  454
387  442
388  429
389  459
390  413
391  449
392  412
393  401
394  439
395  408
396  415
397  445
398  440
399  407
400  414
401  434
402  451
403  405
404  405
405  420
406  466
407  444
408  434
409  452
410  411
411  419
412  436
413  457
414  464
415  418
416  456
417  438
418  411
419  443
420  439
421  399
422  418
423  414
424  430
425  457
426  442
427  459
428  416
429  446
430  433
431  415
432  421
433  440
434  425
435  441
436  425
437  412
438  467
439  451
440  457
441  435
442  429
443  397
444  461
445  442
446  429
447  466
448  424
449  420
450  413
451  441
452  422
453  453
454  437
455  435
456  440
457  426
458  416
459  416
460  397
461  478
462  393
463  465
464  421
465  438
466  426
467  437
468  440
469  428
470  439
471  428
472  437
473  416
474  445
475  400
476  455
477  396
478  452
479  450
480  413
481  423
482  384
483  411
484  421
485  419
486  445
487  432
488  391
489  424
490  455
491  443
492  413
493  422
494  416
495  409
496  421
497  409
498  430
499  459
500  437
501  461
502  403
503  435
504  460
505  464
506  492
507  431
508  436
509  468
510  437
511  421
512  430
513  476
514  424
515  408
516  419
517  460
518  442
519  422
520  442
521  408
522  398
523  428
524  427
525  392
526  418
527  372
528  397
529  451
530  406
531  406
532  398
533  415
534  422
535  442
536  415
537  435
538  450
539  411
540  446
541  428
542  460
543  423
544  415
545  420
546  408
547  435
548  428
549  464
550  407
551  413
552  457
553  437
554  428
555  453
556  441
557  411
558  414
559  384
560  402
561  405
562  418
563  429
564  401
565  451
566  440
567  413
568  397
569  403
570  384
571  462
572  444
573  450
574  443
575  421
576  373
577  397
578  426
579  438
580  409
581  443
582  456
583  430
584  427
585  449
586  437
587  425
588  386
589  426
590  470
591  439
592  395
593  428
594  415
595  412
596  415
597  419
598  413
599  450
600  423
601  423
602  408
603  412
604  437
605  386
606  389
607  427
608  438
609  469
610  426
611  405
612  408
613  405
614  401
615  425
616  387
617  414
618  385
619  409
620  403
621  432
622  445
623  436
624  447
625  405
626  453
627  437
628  452
629  428
630  419
631  413
632  422
633  437
634  431
635  429
636  405
637  399
638  439
639  396
640  399
641  447
642  446
643  396
644  431
645  435
646  408
647  425
648  428
649  399
650  422
651  437
652  425
653  435
654  399
655  440
656  433
657  430
658  428
659  441
660  418
661  436
662  432
663  427
664  467
665  436
666  399
667  440
668  419
669  425
670  398
671  413
672  397
673  411
674  413
675  436
676  426
677  385
678  418
679  465
680  421
681  396
682  436
683  441
684  379
685  422
686  405
687  431
688  401
689  414
690  439
691  394
692  411
693  397
694  448
695  426
696  408
697  475
698  407
699  413
700  429
701  389
702  388
703  395
704  399
705  388
706  389
707  397
708  440
709  403
710  439
711  426
712  441
713  425
714  406
715  425
716  380
717  428
718  387
719  407
720  420
721  422
722  441
723  408
724  389
725  394
726  455
727  426
728  410
729  399
730  438
731  395
732  436
733  406
734  397
735  441
736  409
737  447
738  394
739  425
740  408
741  414
742  389
743  383
744  422
745  393
746  412
747  409
748  422
749  406
750  426
751  396
752  446
753  384
754  407
755  431
756  426
757  446
758  435
759  408
760  380
761  383
762  393
763  413
764  417
765  366
766  420
767  411
768  415
769  411
770  382
771  379
772  411
773  374
774  431
775  367
776  419
777  416
778  409
779  441
780  415
781  411
782  432
783  431
784  389
785  427
786  420
787  390
788  445
789  394
790  409
791  414
792  447
793  419
794  396
795  382
796  446
797  418
798  441
799  379
800  408
801  455
802  398
803  422
804  396
805  409
806  457
807  395
808  450
809  417
810  403
811  426
812  416
813  447
814  397
815  411
816  412
817  397
818  437
819  396
820  419
821  384
822  403
823  414
824  397
825  410
826  429
827  387
828  393
829  393
830  437
831  431
832  409
833  434
834  407
835  382
836  408
837  419
838  429
839  390
840  404
841  413
842  394
843  441
844  397
845  411
846  421
847  402
848  428
849  426
850  423
851  398
852  396
853  392
854  380
855  403
856  444
857  413
858  426
859  367
860  397
861  395
862  352
863  402
864  386
865  396
866  396
867  437
868  420
869  395
870  400
871  426
872  406
873  424
874  451
875  398
876  386
877  408
878  380
879  403
880  412
881  406
882  372
883  384
884  396
885  405
886  420
887  389
888  405
889  378
890  427
891  402
892  422
893  414
894  422
895  401
896  413
897  404
898  385
899  426
900  399
901  403
902  396
903  386
904  405
905  392
906  386
907  412
908  389
909  436
910  402
911  397
912  385
913  423
914  395
915  430
916  408
917  387
918  406
919  400
920  418
921  385
922  384
923  405
924  348
925  412
926  449
927  425
928  400
929  382
930  429
931  402
932  408
933  405
934  373
935  403
936  417
937  403
938  395
939  415
940  400
941  440
942  411
943  382
944  413
945  399
946  407
947  410
948  429
949  414
950  416
951  427
952  390
953  419
954  426
955  393
956  430
957  423
958  414
959  423
960  348
961  375
962  406
963  411
964  371
965  421
966  401
967  425
968  448
969  398
970  379
971  429
972  433
973  402
974  423
975  391
976  430
977  432
978  418
979  437
980  390
981  427
982  417
983  397
984  402
985  398
986  408
987  423
988  430
989  444
990  439
991  396
992  424
993  481
994  387
995  402
996  404
997  421
998  403
999  385
1000  408
1001  366
1002  439
1003  420
1004  419
1005  436
1006  435
1007  411
1008  424
1009  442
1010  405
1011  431
1012  398
1013  439
1014  445
1015  431
1016  406
1017  452
1018  427
1019  447
1020  396
1021  403
1022  409
1023  405
1024  408
1025  410
1026  424
1027  417
1028  407
1029  427
1030  454
1031  428
1032  402
1033  415
1034  420
1035  428
1036  396
1037  390
1038  432
1039  427
1040  450
1041  425
1042  452
1043  394
1044  400
1045  417
1046  451
1047  421
1048  427
1049  370
1050  434
1051  427
1052  449
1053  423
1054  434
1055  447
1056  397
1057  392
1058  414
1059  394
1060  402
1061  401
1062  387
1063  408
1064  423
1065  416
1066  390
1067  426
1068  416
1069  394
1070  413
1071  418
1072  454
1073  424
1074  445
1075  426
1076  377
1077  426
1078  418
1079  402
1080  395
1081  415
1082  410
1083  413
1084  423
1085  415
1086  405
1087  427
1088  434
1089  434
1090  430
1091  414
1092  398
1093  397
1094  406
1095  415
1096  419
1097  417
1098  414
1099  454
1100  406
1101  439
1102  424
1103  394
1104  441
1105  395
1106  407
1107  439
1108  443
1109  441
1110  467
1111  416
1112  409
1113  404
1114  423
1115  423
1116  456
1117  428
1118  432
1119  420
1120  420
1121  388
1122  427
1123  439
1124  419
1125  408
1126  415
1127  397
1128  420
1129  394
1130  404
1131  407
1132  404
1133  398
1134  422
1135  440
1136  459
1137  431
1138  409
1139  433
1140  427
1141  405
1142  383
1143  413
1144  421
1145  421
1146  427
1147  441
1148  425
1149  436
1150  439
1151  434
1152  413
1153  344
1154  392
1155  399
1156  422
1157  420
1158  419
1159  396
1160  405
1161  419
1162  430
1163  448
1164  401
1165  434
1166  434
1167  406
1168  397
1169  415
1170  375
1171  429
1172  426
1173  413
1174  415
1175  437
1176  435
1177  433
1178  443
1179  438
1180  420
1181  421
1182  437
1183  437
1184  406
1185  380
1186  413
1187  436
1188  389
1189  432
1190  404
1191  423
1192  422
1193  406
1194  415
1195  417
1196  439
1197  410
1198  414
1199  438
1200  412
1201  468
1202  404
1203  420
1204  403
1205  428
1206  442
1207  392
1208  415
1209  419
1210  419
1211  417
1212  421
1213  402
1214  440
1215  411
1216  477
1217  436
1218  454
1219  415
1220  422
1221  401
1222  419
1223  393
1224  412
1225  400
1226  400
1227  460
1228  413
1229  417
1230  436
1231  402
1232  415
1233  448
1234  377
1235  444
1236  413
1237  423
1238  391
1239  386
1240  381
1241  408
1242  424
1243  437
1244  395
1245  428
1246  409
1247  388
1248  391
1249  404
1250  412
1251  408
1252  417
1253  417
1254  407
1255  414
1256  434
1257  403
1258  433
1259  446
1260  415
1261  426
1262  435
1263  385
1264  405
1265  420
1266  421
1267  447
1268  444
1269  425
1270  405
1271  416
1272  368
1273  399
1274  427
1275  375
1276  444
1277  436
1278  437
1279  419
1280  414
1281  405
1282  403
1283  403
1284  405
1285  399
1286  411
1287  393
1288  433
1289  391
1290  393
1291  433
1292  413
1293  416
1294  453
1295  380
1296  426
1297  411
1298  385
1299  460
1300  423
1301  372
1302  429
1303  394
1304  414
1305  398
1306  399
1307  377
1308  401
1309  409
1310  396
1311  375
1312  438
1313  440
1314  396
1315  432
1316  389
1317  399
1318  402
1319  448
1320  401
1321  426
1322  402
1323  404
1324  391
1325  414
1326  372
1327  392
1328  412
1329  396
1330  412
1331  413
1332  360
1333  394
1334  389
1335  424
1336  374
1337  402
1338  377
1339  375
1340  384
1341  398
1342  400
1343  411
1344  376
1345  386
1346  388
1347  397
1348  395
1349  397
1350  423
1351  436
1352  395
1353  377
1354  400
1355  398
1356  390
1357  408
1358  424
1359  415
1360  427
1361  334
1362  407
1363  400
1364  380
1365  374
1366  387
1367  371
1368  385
1369  422
1370  406
1371  393
1372  406
1373  405
1374  407
1375  421
1376  371
1377  396
1378  385
1379  399
1380  412
1381  385
1382  410
1383  406
1384  388
1385  389
1386  389
1387  379
1388  374
1389  389
1390  410
1391  412
1392  386
1393  403
1394  399
1395  356
1396  377
1397  394
1398  403
1399  405
1400  433
1401  380
1402  419
1403  408
1404  383
1405  373
1406  390
1407  399
1408  428
1409  397
1410  366
1411  392
1412  404
1413  397
1414  395
1415  387
1416  384
1417  384
1418  398
1419  370
1420  376
1421  389
1422  354
1423  371
1424  378
1425  391
1426  371
1427  426
1428  425
1429  381
1430  375
1431  386
1432  381
1433  382
1434  390
1435  394
1436  389
1437  430
1438  412
1439  381
1440  412
1441  350
1442  429
1443  365
1444  390
1445  388
1446  360
1447  393
1448  401
1449  391
1450  398
1451  377
1452  367
1453  373
1454  362
1455  375
1456  383
1457  376
1458  351
1459  389
1460  383
1461  394
1462  396
1463  406
1464  371
1465  369
1466  375
1467  366
1468  376
1469  361
1470  379
1471  376
1472  398
1473  367
1474  399
1475  358
1476  368
1477  388
1478  391
1479  367
1480  344
1481  385
1482  388
1483  334
1484  393
1485  413
1486  363
1487  375
1488  399
1489  373
1490  365
1491  378
1492  412
1493  378
1494  363
1495  353
1496  405
1497  367
1498  356
1499  402
1500  397
1501  377
1502  348
1503  377
1504  372
1505  337
1506  390
1507  373
1508  375
1509  412
1510  379
1511  371
1512  372
1513  382
1514  388
1515  355
1516  408
1517  383
1518  393
1519  374
1520  378
1521  348
1522  343
1523  376
1524  380
1525  373
1526  396
1527  364
1528  384
1529  356
1530  371
1531  415
1532  358
1533  362
1534  365
1535  374
1536  353
1537  377
1538  362
1539  380
1540  353
1541  355
1542  406
1543  379
1544  410
1545  414
1546  416
1547  353
1548  377
1549  376
1550  368
1551  375
1552  351
1553  423
1554  365
1555  401
1556  382
1557  407
1558  351
1559  380
1560  372
1561  361
1562  385
1563  382
1564  362
1565  416
1566  345
1567  368
1568  328
1569  417
1570  387
1571  350
1572  392
1573  402
1574  381
1575  407
1576  398
1577  370
1578  405
1579  374
1580  390
1581  383
1582  404
1583  376
1584  384
1585  430
1586  365
1587  377
1588  368
1589  403
1590  362
1591  364
1592  390
1593  414
1594  375
1595  387
1596  379
1597  373
1598  387
1599  384
1600  390
1601  384
1602  430
1603  394
1604  389
1605  377
1606  349
1607  386
1608  376
1609  410
1610  364
1611  350
1612  377
1613  442
1614  405
1615  375
1616  380
1617  402
1618  387
1619  379
1620  436
1621  388
1622  380
1623  370
1624  379
1625  388
1626  396
1627  416
1628  435
1629  398
1630  386
1631  406
1632  391
1633  391
1634  443
1635  363
1636  382
1637  379
1638  391
1639  397
1640  397
1641  376
1642  390
1643  368
1644  373
1645  380
1646  372
1647  402
1648  389
1649  355
1650  395
1651  421
1652  364
1653  381
1654  412
1655  401
1656  372
1657  415
1658  383
1659  392
1660  377
1661  375
1662  395
1663  402
1664  393
1665  393
1666  412
1667  399
1668  373
1669  414
1670  374
1671  362
1672  398
1673  418
1674  384
1675  382
1676  348
1677  364
1678  425
1679  406
1680  419
1681  401
1682  419
1683  406
1684  399
1685  402
1686  385
1687  376
1688  398
1689  389
1690  408
1691  393
1692  409
1693  350
1694  386
1695  395
1696  416
1697  374
1698  398
1699  415
1700  402
1701  407
1702  387
1703  330
1704  392
1705  429
1706  430
1707  397
1708  402
1709  362
1710  417
1711  432
1712  404
1713  412
1714  395
1715  394
1716  422
1717  413
1718  380
1719  370
1720  389
1721  414
1722  412
1723  373
1724  393
1725  433
1726  415
1727  393
1728  377
1729  385
1730  367
1731  418
1732  393
1733  406
1734  447
1735  410
1736  391
1737  402
1738  444
1739  389
1740  403
1741  438
1742  371
1743  416
1744  404
1745  379
1746  392
1747  385
1748  372
1749  402
1750  426
1751  441
1752  405
1753  364
1754  406
1755  407
1756  412
1757  392
1758  383
1759  406
1760  420
1761  432
1762  378
1763  388
1764  436
1765  398
1766  419
1767  425
1768  418
1769  413
1770  438
1771  391
1772  397
1773  397
1774  414
1775  370
1776  410
1777  399
1778  401
1779  435
1780  428
1781  432
1782  404
1783  407
1784  364
1785  456
1786  364
1787  364
1788  423
1789  395
1790  411
1791  415
1792  429
1793  409
1794  412
1795  376
1796  435
1797  427
1798  387
1799  397
1800  395
1801  451
1802  404
1803  375
1804  423
1805  383
1806  422
1807  395
1808  419
1809  391
1810  452
1811  365
1812  430
1813  448
1814  435
1815  384
1816  384
1817  417
1818  423
1819  446
1820  452
1821  440
1822  444
1823  414
1824  435
1825  422
1826  395
1827  428
1828  431
1829  427
1830  414
1831  430
1832  436
1833  411
1834  395
1835  399
1836  418
1837  407
1838  388
1839  421
1840  423
1841  415
1842  417
1843  409
1844  386
1845  388
1846  425
1847  426
1848  405
1849  447
1850  409
1851  426
1852  423
1853  415
1854  399
1855  404
1856  405
1857  416
1858  441
1859  433
1860  433
1861  449
1862  431
1863  418
1864  374
1865  430
1866  431
1867  432
1868  425
1869  448
1870  399
1871  429
1872  410
1873  413
1874  409
1875  378
1876  425
1877  432
1878  423
1879  392
1880  446
1881  479
1882  431
1883  445
1884  467
1885  395
1886  397
1887  379
1888  434
1889  437
1890  411
1891  419
1892  400
1893  413
1894  419
1895  415
1896  438
1897  435
1898  426
1899  452
1900  378
1901  444
1902  409
1903  465
1904  398
1905  414
1906  438
1907  412
1908  401
1909  395
1910  419
1911  405
1912  409
1913  398
1914  418
1915  442
1916  451
1917  409
1918  417
1919  437
1920  413
1921  419
1922  424
1923  411
1924  399
1925  436
1926  392
1927  403
1928  424
1929  449
1930  409
1931  433
1932  407
1933  419
1934  418
1935  419
1936  435
1937  447
1938  443
1939  444
1940  408
1941  404
1942  419
1943  444
1944  425
1945  402
1946  409
1947  404
1948  426
1949  400
1950  411
1951  449
1952  399
1953  453
1954  424
1955  408
1956  447
1957  406
1958  392
1959  425
1960  416
1961  415
1962  411
1963  440
1964  419
1965  448
1966  444
1967  416
1968  436
1969  427
1970  422
1971  401
1972  444
1973  420
1974  413
1975  413
1976  399
1977  436
1978  410
1979  420
1980  431
1981  430
1982  443
1983  418
1984  448
1985  423
1986  411
1987  393
1988  390
1989  457
1990  405
1991  390
1992  405
1993  444
1994  420
1995  413
1996  444
1997  399
1998  400
1999  418
2000  439
2001  425
2002  446
2003  382
2004  456
2005  388
2006  439
2007  431
2008  421
2009  385
2010  428
2011  424
2012  415
2013  369
2014  453
2015  437
2016  387
2017  398
2018  423
2019  409
2020  411
2021  454
2022  436
2023  431
2024  414
2025  390
2026  406
2027  410
2028  433
2029  447
2030  410
2031  406
2032  385
2033  405
2034  421
2035  437
2036  405
2037  405
2038  413
2039  398
2040  451
2041  436
2042  393
2043  401
2044  415
2045  413
2046  420
2047  418
2048  426
2049  454
2050  463
2051  382
2052  407
2053  402
2054  416
2055  424
2056  443
2057  407
2058  412
2059  414
2060  449
2061  405
2062  417
2063  444
2064  407
2065  439
2066  409
2067  452
2068  370
2069  394
2070  371
2071  408
2072  431
2073  414
2074  397
2075  452
2076  422
2077  429
2078  431
2079  429
2080  414
2081  412
2082  421
2083  420
2084  461
2085  389
2086  423
2087  457
2088  405
2089  393
2090  456
2091  387
2092  385
2093  381
2094  403
2095  411
2096  412
2097  376
2098  385
2099  418
2100  389
2101  448
2102  410
2103  427
2104  368
2105  418
2106  422
2107  434
2108  420
2109  420
2110  385
2111  399
2112  409
2113  383
2114  399
2115  475
2116  436
2117  389
2118  442
2119  420
2120  417
2121  423
2122  427
2123  420
2124  440
2125  449
2126  410
2127  410
2128  429
2129  414
2130  409
2131  426
2132  396
2133  416
2134  345
2135  419
2136  428
2137  410
2138  468
2139  427
2140  394
2141  441
2142  380
2143  405
2144  410
2145  407
2146  396
2147  411
2148  395
2149  420
2150  391
2151  399
2152  419
2153  377
2154  405
2155  430
2156  374
2157  420
2158  387
2159  418
2160  406
2161  449
2162  421
2163  437
2164  378
2165  417
2166  369
2167  403
2168  386
2169  388
2170  424
2171  415
2172  442
2173  397
2174  429
2175  418
2176  416
2177  404
2178  373
2179  418
2180  421
2181  427
2182  393
2183  412
2184  388
2185  372
2186  436
2187  381
2188  413
2189  394
2190  403
2191  429
2192  375
2193  415
2194  382
2195  391
2196  393
2197  425
2198  427
2199  371
2200  392
2201  437
2202  382
2203  442
2204  418
2205  399
2206  387
2207  389
2208  407
2209  437
2210  388
2211  409
2212  400
2213  405
2214  381
2215  405
2216  397
2217  405
2218  356
2219  397
2220  393
2221  412
2222  352
2223  381
2224  383
2225  407
2226  409
2227  389
2228  353
2229  392
2230  368
2231  391
2232  374
2233  366
2234  388
2235  434
2236  405
2237  403
2238  386
2239  353
2240  388
2241  389
2242  393
2243  403
2244  354
2245  409
2246  404
2247  370
2248  369
2249  374
2250  390
2251  366
2252  408
2253  374
2254  392
2255  395
2256  390
2257  319
2258  392
2259  383
2260  397
2261  394
2262  428
2263  385
2264  395
2265  360
2266  348
2267  366
2268  365
2269  393
2270  365
2271  363
2272  402
2273  390
2274  373
2275  404
2276  362
2277  358
2278  393
2279  376
2280  418
2281  411
2282  382
2283  388
2284  412
2285  402
2286  418
2287  389
2288  396
2289  345
2290  357
2291  379
2292  393
2293  390
2294  418
2295  381
2296  423
2297  384
2298  380
2299  366
2300  408
2301  387
2302  390
2303  384
2304  378
2305  352
2306  365
2307  390
2308  385
2309  368
2310  398
2311  337
2312  398
2313  398
2314  370
2315  391
2316  373
2317  420
2318  350
2319  379
2320  411
2321  395
2322  397
2323  389
2324  371
2325  410
2326  409
2327  387
2328  369
2329  379
2330  387
2331  380
2332  394
2333  415
2334  340
2335  412
2336  375
2337  369
2338  400
2339  384
2340  374
2341  361
2342  386
2343  358
2344  361
2345  384
2346  367
2347  335
2348  436
2349  387
2350  342
2351  364
2352  358
2353  389
2354  406
2355  341
2356  387
2357  354
2358  349
2359  410
2360  354
2361  399
2362  396
2363  367
2364  382
2365  423
2366  409
2367  389
2368  404
2369  352
2370  347
2371  382
2372  380
2373  330
2374  373
2375  378
2376  391
2377  370
2378  353
2379  388
2380  372
2381  389
2382  377
2383  387
2384  379
2385  367
2386  384
2387  395
2388  380
2389  358
2390  357
2391  391
2392  385
2393  394
2394  397
2395  382
2396  390
2397  397
2398  367
2399  391
2400  405
2401  405
2402  370
2403  382
2404  390
2405  382
2406  396
2407  369
2408  392
2409  393
2410  389
2411  399
2412  384
2413  352
2414  354
2415  373
2416  424
2417  379
2418  403
2419  366
2420  396
2421  375
2422  358
2423  351
2424  397
2425  396
2426  384
2427  359
2428  368
2429  366
2430  391
2431  389
2432  424
2433  388
2434  355
2435  370
2436  386
2437  377
2438  338
2439  411
2440  383
2441  402
2442  387
2443  419
2444  349
2445  397
2446  365
2447  371
2448  400
2449  370
2450  386
2451  402
2452  369
2453  380
2454  395
2455  383
2456  380
2457  377
2458  403
2459  390
2460  354
2461  380
2462  365
2463  392
2464  390
2465  395
2466  378
2467  413
2468  380
2469  379
2470  414
2471  372
2472  402
2473  374
2474  342
2475  400
2476  387
2477  397
2478  378
2479  379
2480  374
2481  384
2482  407
2483  388
2484  394
2485  388
2486  375
2487  371
2488  378
2489  401
2490  407
2491  396
2492  378
2493  364
2494  362
2495  392
2496  382
2497  364
2498  399
2499  408
2500  377
2501  366
2502  409
2503  422
2504  384
2505  367
2506  439
2507  383
2508  407
2509  393
2510  385
2511  416
2512  370
2513  425
2514  408
2515  426
2516  385
2517  395
2518  406
2519  416
2520  389
2521  339
2522  401
2523  399
2524  395
2525  399
2526  389
2527  382
2528  404
2529  408
2530  398
2531  392
2532  381
2533  387
2534  350
2535  404
2536  408
2537  390
2538  411
2539  407
2540  393
2541  367
2542  345
2543  382
2544  415
2545  412
2546  384
2547  412
2548  413
2549  353
2550  422
2551  414
2552  374
2553  424
2554  374
2555  378
2556  374
2557  401
2558  420
2559  391
2560  405
2561  432
2562  411
2563  401
2564  421
2565  442
2566  395
2567  407
2568  391
2569  369
2570  382
2571  413
2572  398
2573  451
2574  381
2575  422
2576  402
2577  438
2578  406
2579  433
2580  398
2581  409
2582  429
2583  391
2584  382
2585  415
2586  432
2587  408
2588  400
2589  391
2590  390
2591  423
2592  397
2593  426
2594  427
2595  434
2596  392
2597  383
2598  368
2599  398
2600  420
2601  405
2602  422
2603  394
2604  381
2605  437
2606  431
2607  409
2608  402
2609  421
2610  441
2611  412
2612  422
2613  396
2614  414
2615  425
2616  378
2617  416
2618  402
2619  425
2620  409
2621  390
2622  390
2623  426
2624  407
2625  405
2626  416
2627  410
2628  435
2629  400
2630  407
2631  412
2632  392
2633  381
2634  405
2635  394
2636  420
2637  384
2638  420
2639  388
2640  405
2641  435
2642  396
2643  416
2644  397
2645  406
2646  429
2647  428
2648  390
2649  432
2650  418
2651  426
2652  431
2653  429
2654  436
2655  419
2656  444
2657  455
2658  427
2659  375
2660  389
2661  419
2662  429
2663  416
2664  371
2665  447
2666  398
2667  438
2668  431
2669  429
2670  384
2671  407
2672  372
2673  422
2674  478
2675  405
2676  443
2677  428
2678  443
2679  433
2680  401
2681  429
2682  434
2683  446
2684  403
2685  425
2686  431
2687  384
2688  420
2689  376
2690  462
2691  430
2692  471
2693  434
2694  430
2695  403
2696  428
2697  407
2698  411
2699  412
2700  424
2701  401
2702  412
2703  417
2704  428
2705  404
2706  411
2707  437
2708  419
2709  412
2710  439
2711  423
2712  408
2713  387
2714  390
2715  423
2716  377
2717  437
2718  419
2719  416
2720  408
2721  438
2722  416
2723  410
2724  421
2725  434
2726  466
2727  439
2728  414
2729  427
2730  407
2731  425
2732  397
2733  370
2734  401
2735  460
2736  397
2737  421
2738  419
2739  432
2740  426
2741  449
2742  407
2743  423
2744  405
2745  463
2746  427
2747  416
2748  420
2749  429
2750  396
2751  395
2752  449
2753  453
2754  383
2755  394
2756  470
2757  399
2758  401
2759  427
2760  401
2761  422
2762  378
2763  411
2764  439
2765  410
2766  452
2767  429
2768  437
2769  464
2770  463
2771  407
2772  449
2773  400
2774  412
2775  411
2776  434
2777  392
2778  429
2779  395
2780  442
2781  381
2782  443
2783  425
2784  415
2785  421
2786  412
2787  434
2788  396
2789  425
2790  437
2791  442
2792  422
2793  423
2794  426
2795  460
2796  411
2797  418
2798  400
2799  427
2800  452
2801  454
2802  429
2803  433
2804  427
2805  453
2806  444
2807  397
2808  458
2809  438
2810  474
2811  420
2812  429
2813  402
2814  439
2815  412
2816  462
2817  412
2818  438
2819  409
2820  387
2821  426
2822  430
2823  375
2824  402
2825  426
2826  426
2827  479
2828  425
2829  427
2830  463
2831  416
2832  399
2833  405
2834  406
2835  435
2836  433
2837  454
2838  417
2839  437
2840  423
2841  438
2842  409
2843  443
2844  419
2845  412
2846  442
2847  439
2848  422
2849  406
2850  417
2851  394
2852  410
2853  435
2854  449
2855  442
2856  442
2857  419
2858  439
2859  446
2860  382
2861  474
2862  368
2863  404
2864  423
2865  429
2866  417
2867  413
2868  447
2869  412
2870  382
2871  454
2872  400
2873  401
2874  408
2875  428
2876  422
2877  395
2878  428
2879  395
2880  447
2881  403
2882  369
2883  421
2884  407
2885  431
2886  407
2887  404
2888  374
2889  458
2890  398
2891  421
2892  449
2893  443
2894  375
2895  430
2896  396
2897  401
2898  380
2899  418
2900  431
2901  411
2902  414
2903  404
2904  446
2905  392
2906  391
2907  431
2908  414
2909  424
2910  468
2911  404
2912  454
2913  448
2914  428
2915  394
2916  416
2917  415
2918  418
2919  408
2920  418
2921  404
2922  425
2923  398
2924  424
2925  401
2926  416
2927  433
2928  432
2929  413
2930  424
2931  412
2932  400
2933  389
2934  391
2935  407
2936  417
2937  414
2938  379
2939  426
2940  418
2941  440
2942  391
2943  432
2944  400
2945  404
2946  406
2947  420
2948  396
2949  449
2950  401
2951  408
2952  384
2953  466
2954  378
2955  416
2956  403
2957  415
2958  422
2959  391
2960  410
2961  451
2962  424
2963  431
2964  404
2965  382
2966  419
2967  418
2968  410
2969  414
2970  418
2971  414
2972  390
2973  432
2974  408
2975  419
2976  407
2977  397
2978  426
2979  440
2980  422
2981  406
2982  387
2983  378
2984  438
2985  422
2986  382
2987  446
2988  448
2989  425
2990  375
2991  405
2992  446
2993  413
2994  350
2995  444
2996  412
2997  395
2998  417
2999  400
3000  389
3001  407
3002  389
3003  391
3004  438
3005  397
3006  402
3007  420
3008  400
3009  366
3010  408
3011  394
3012  405
3013  429
3014  385
3015  415
3016  407
3017  434
3018  437
3019  420
3020  409
3021  413
3022  416
3023  395
3024  419
3025  379
3026  399
3027  414
3028  411
3029  437
3030  371
3031  404
3032  403
3033  402
3034  397
3035  408
3036  364
3037  404
3038  392
3039  406
3040  414
3041  372
3042  393
3043  381
3044  378
3045  390
3046  404
3047  417
3048  398
3049  397
3050  368
3051  427
3052  399
3053  402
3054  394
3055  377
3056  413
3057  386
3058  373
3059  395
3060  412
3061  372
3062  382
3063  403
3064  373
3065  399
3066  426
3067  394
3068  387
3069  411
3070  440
3071  438
3072  376
3073  388
3074  386
3075  404
3076  399
3077  370
3078  368
3079  403
3080  346
3081  392
3082  427
3083  391
3084  392
3085  393
3086  375
3087  369
3088  369
3089  387
3090  406
3091  408
3092  401
3093  365
3094  377
3095  389
3096  384
3097  403
3098  379
3099  368
3100  413
3101  404
3102  340
3103  344
3104  394
3105  386
3106  374
3107  388
3108  416
3109  386
3110  384
3111  387
3112  407
3113  376
3114  387
3115  376
3116  387
3117  370
3118  368
3119  380
3120  393
3121  325
3122  352
3123  361
3124  385
3125  388
3126  371
3127  426
3128  388
3129  391
3130  359
3131  351
3132  392
3133  381
3134  399
3135  380
3136  380
3137  395
3138  345
3139  371
3140  395
3141  405
3142  406
3143  383
3144  381
3145  401
3146  376
3147  392
3148  370
3149  360
3150  395
3151  382
3152  388
3153  350
3154  404
3155  378
3156  382
3157  342
3158  341
3159  349
3160  403
3161  366
3162  342
3163  418
3164  402
3165  379
3166  345
3167  394
3168  353
3169  363
3170  371
3171  375
3172  354
3173  364
3174  373
3175  344
3176  421
3177  362
3178  359
3179  369
3180  331
3181  385
3182  376
3183  413
3184  366
3185  398
3186  406
3187  393
3188  358
3189  378
3190  361
3191  397
3192  409
3193  374
3194  397
3195  408
3196  370
3197  375
3198  398
3199  366
3200  378
3201  391
3202  382
3203  382
3204  382
3205  346
3206  365
3207  389
3208  364
3209  404
3210  376
3211  401
3212  384
3213  372
3214  410
3215  397
3216  406
3217  400
3218  406
3219  358
3220  341
3221  399
3222  407
3223  392
3224  418
3225  407
3226  376
3227  400
3228  343
3229  422
3230  372
3231  383
3232  395
3233  354
3234  406
3235  388
3236  388
3237  395
3238  349
3239  423
3240  374
3241  415
3242  375
3243  394
3244  381
3245  389
3246  402
3247  392
3248  375
3249  388
3250  332
3251  357
3252  399
3253  386
3254  399
3255  397
3256  348
3257  406
3258  356
3259  377
3260  378
3261  359
3262  370
3263  396
3264  416
3265  378
3266  378
3267  377
3268  394
3269  391
3270  383
3271  368
3272  395
3273  407
3274  378
3275  423
3276  361
3277  412
3278  375
3279  374
3280  398
3281  401
3282  374
3283  397
3284  369
3285  391
3286  377
3287  397
3288  405
3289  360
3290  385
3291  379
3292  361
3293  406
3294  359
3295  386
3296  386
3297  356
3298  404
3299  373
3300  375
3301  392
3302  390
3303  377
3304  407
3305  365
3306  392
3307  376
3308  364
3309  385
3310  403
3311  392
3312  404
3313  406
3314  365
3315  334
3316  382
3317  385
3318  399
3319  368
3320  382
3321  377
3322  381
3323  371
3324  377
3325  375
3326  390
3327  389
3328  436
3329  386
3330  409
3331  408
3332  360
3333  408
3334  394
3335  369
3336  381
3337  424
3338  379
3339  373
3340  402
3341  401
3342  395
3343  366
3344  382
3345  387
3346  379
3347  387
3348  410
3349  405
3350  386
3351  386
3352  355
3353  369
3354  381
3355  384
3356  399
3357  392
3358  373
3359  392
3360  445
3361  408
3362  404
3363  384
3364  393
3365  368
3366  399
3367  383
3368  382
3369  379
3370  371
3371  409
3372  390
3373  380
3374  384
3375  414
3376  402
3377  386
3378  392
3379  393
3380  406
3381  359
3382  364
3383  399
3384  401
3385  369
3386  373
3387  377
3388  404
3389  393
3390  423
3391  380
3392  411
3393  398
3394  412
3395  429
3396  382
3397  423
3398  402
3399  420
3400  421
3401  409
3402  410
3403  422
3404  392
3405  404
3406  421
3407  404
3408  396
3409  416
3410  389
3411  397
3412  417
3413  404
3414  409
3415  388
3416  387
3417  426
3418  400
3419  404
3420  406
3421  346
3422  375
3423  414
3424  400
3425  422
3426  393
3427  388
3428  452
3429  433
3430  407
3431  410
3432  409
3433  424
3434  407
3435  385
3436  354
3437  430
3438  423
3439  436
3440  443
3441  416
3442  417
3443  404
3444  374
3445  403
3446  388
3447  457
3448  407
3449  427
3450  411
3451  426
3452  425
3453  413
3454  387
3455  401
3456  412
3457  392
3458  404
3459  417
3460  405
3461  429
3462  414
3463  378
3464  411
3465  420
3466  435
3467  396
3468  407
3469  396
3470  431
3471  396
3472  376
3473  336
3474  381
3475  343
3476  353
3477  369
3478  342
3479  305
3480  276
3481  281
3482  221
3483  149
3484  118
3485  61
3486  33
3487  15
3488  3
3489  3
3490  1
3491  0
3492  1
3493  0
3494  2
3495  0
3496  0
3497  0
3498  0
3499  0
3500  0
3501  0
3502  0
3503  0
3504  0
3505  0
3506  0
3507  0
3508  0
3509  0
3510  0
3511  0
3512  0
3513  0
3514  0
3515  0
3516  0
3517  0
3518  0
3519  0
3520  0
3521  0
3522  0
3523  0
3524  0
3525  0
3526  0
3527  0
3528  0
3529  0
3530  0
3531  0
3532  0
3533  0
3534  0
3535  0
3536  0
3537  0
3538  0
3539  0
3540  0
3541  0
3542  0
3543  0
3544  0
3545  0
3546  0
3547  0
3548  0
3549  0
3550  0
3551  0
3552  0
3553  0
3554  0
3555  0
3556  0
3557  0
3558  0
3559  0
3560  0
3561  0
3562  0
3563  0
3564  0
3565  0
3566  0
3567  0
3568  0
3569  0
3570  0
3571  0
3572  0
3573  0
3574  0
3575  0
3576  0
3577  0
3578  0
3579  0
3580  0
3581  0
3582  0
3583  0
3584  0
3585  0
3586  0
3587  0
3588  0
3589  0
3590  0
3591  0
3592  0
3593  0
3594  0
3595  0
3596  0
3597  0
3598  0
3599  0
3600  0
3601  0
3602  0
3603  0
3604  0
3605  0
3606  0
3607  0
3608  0
3609  0
3610  0
3611  0
3612  0
3613  0
3614  0
3615  0
3616  0
3617  0
3618  0
3619  0
3620  0
3621  0
3622  0
3623  0
3624  0
3625  0
3626  0
3627  0
3628  0
3629  0
3630  0
3631  0
3632  0
3633  0
3634  0
3635  0
3636  0
3637  0
3638  0
3639  0
3640  0
3641  0
3642  0
3643  0
3644  0
3645  0
3646  0
3647  0
3648  0
3649  0
3650  0
3651  0
3652  0
3653  0
3654  0
3655  0
3656  0
3657  0
3658  0
3659  0
3660  0
3661  0
3662  0
3663  0
3664  0
3665  0
3666  0
3667  0
3668  0
3669  0
3670  0
3671  0
3672  0
3673  0
3674  0
3675  0
3676  0
3677  0
3678  0
3679  0
3680  0
3681  0
3682  0
3683  0
3684  0
3685  0
3686  0
3687  0
3688  0
3689  0
3690  0
3691  0
3692  0
3693  0
3694  0
3695  0
3696  0
3697  0
3698  0
3699  0
3700  0
3701  0
3702  0
3703  0
3704  0
3705  0
3706  0
3707  0
3708  0
3709  0
3710  0
3711  0
3712  0
3713  0
3714  0
3715  0
3716  0
3717  0
3718  0
3719  0
3720  0
3721  0
3722  0
3723  0
3724  0
3725  0
3726  0
3727  0
3728  0
3729  0
3730  0
3731  0
3732  0
3733  0
3734  0
3735  0
3736  0
3737  0
3738  0
3739  0
3740  0
3741  0
3742  0
3743  0
3744  0
3745  0
3746  0
3747  0
3748  0
3749  0
3750  0
3751  0
3752  0
3753  0
3754  0
3755  0
3756  0
3757  0
3758  0
3759  0
3760  0
3761  0
3762  0
3763  0
3764  0
3765  0
3766  0
3767  0
3768  0
3769  0
3770  0
3771  0
3772  0
3773  0
3774  0
3775  0
3776  0
3777  0
3778  0
3779  0
3780  0
3781  0
3782  0
3783  0
3784  0
3785  0
3786  0
3787  0
3788  0
3789  0
3790  0
3791  0
3792  0
3793  0
3794  0
3795  0
3796  0
3797  0
3798  0
3799  0
3800  0
3801  0
3802  0
3803  0
3804  0
3805  0
3806  0
3807  0
3808  0
3809  0
3810  0
3811  0
3812  0
3813  0
3814  0
3815  0
3816  0
3817  0
3818  0
3819  0
3820  0
3821  0
3822  0
3823  0
3824  0
3825  0
3826  0
3827  0
3828  0
3829  0
3830  0
3831  0
3832  0
3833  0
3834  0
3835  0
3836  0
3837  0
3838  0
3839  0
3840  0
3841  0
3842  0
3843  0
3844  0
3845  0
3846  0
3847  0
3848  0
3849  0
3850  0
3851  0
3852  0
3853  0
3854  0
3855  0
3856  0
3857  0
3858  0
3859  0
3860  0
3861  0
3862  0
3863  0
3864  0
3865  0
3866  0
3867  0
3868  0
3869  0
3870  0
3871  0
3872  0
3873  0
3874  0
3875  0
3876  0
3877  0
3878  0
3879  0
3880  0
3881  0
3882  0
3883  0
3884  0
3885  0
3886  0
3887  0
3888  0
3889  0
3890  0
3891  0
3892  0
3893  0
3894  0
3895  0
3896  0
3897  0
3898  0
3899  0
3900  0
3901  0
3902  0
3903  0
3904  0
3905  0
3906  0
3907  0
3908  0
3909  0
3910  0
3911  0
3912  0
3913  0
3914  0
3915  0
3916  0
3917  0
3918  0
3919  0
3920  0
3921  0
3922  0
3923  0
3924  0
3925  0
3926  0
3927  0
3928  0
3929  0
3930  0
3931  0
3932  0
3933  0
3934  0
3935  0
3936  0
3937  0
3938  0
3939  0
3940  0
3941  0
3942  0
3943  0
3944  0
3945  0
3946  0
3947  0
3948  0
3949  0
3950  0
3951  0
3952  0
3953  0
3954  0
3955  0
3956  0
3957  0
3958  0
3959  0
3960  0
3961  0
3962  0
3963  0
3964  0
3965  0
3966  0
3967  0
3968  0
3969  0
3970  0
3971  0
3972  0
3973  0
3974  0
3975  0
3976  0
3977  0
3978  0
3979  0
3980  0
3981  0
3982  0
3983  0
3984  0
3985  0
3986  0
3987  0
3988  0
3989  0
3990  0
3991  0
3992  0
3993  0
3994  0
3995  0
3996  0
3997  0
3998  0
3999  0
4000  0
4001  0
4002  0
4003  0
4004  0
4005  0
4006  0
4007  0
4008  0
4009  0
4010  0
4011  0
4012  0
4013  0
4014  0
4015  0
4016  0
4017  0
4018  0
4019  0
4020  0
4021  0
4022  0
4023  0
4024  0
4025  0
4026  0
4027  0
4028  0
4029  0
4030  0
4031  0
4032  0
4033  0
4034  0
4035  0
4036  0
4037  0
4038  0
4039  0
4040  0
4041  0
4042  0
4043  0
4044  0
4045  0
4046  0
4047  0
4048  0
4049  0
4050  0
4051  0
4052  0
4053  0
4054  0
4055  0
4056  0
4057  0
4058  0
4059  0
4060  0
4061  0
4062  0
4063  0
4064  0
4065  0
4066  0
4067  0
4068  0
4069  0
4070  0
4071  0
4072  0
4073  0
4074  0
4075  0
4076  0
4077  0
4078  0
4079  0
4080  0
4081  0
4082  0
4083  0
4084  0
4085  0
4086  0
4087  0
4088  0
4089  0
4090  0
4091  0
4092  0
4093  0
4094  0
4095  0
