0  0
1  0
2  0
3  0
4  0
5  0
6  0
7  0
8  0
9  0
10  0
11  0
12  0
13  0
14  0
15  0
16  0
17  0
18  0
19  0
20  0
21  0
22  0
23  0
24  0
25  0
26  0
27  0
28  0
29  0
30  0
31  0
32  0
33  0
34  0
35  0
36  0
37  0
38  0
39  0
40  0
41  0
42  0
43  0
44  0
45  0
46  0
47  0
48  0
49  0
50  0
51  0
52  0
53  0
54  0
55  0
56  0
57  0
58  0
59  0
60  0
61  0
62  0
63  0
64  0
65  0
66  0
67  0
68  0
69  0
70  0
71  0
72  0
73  0
74  1
75  0
76  0
77  0
78  0
79  0
80  0
81  0
82  0
83  1
84  0
85  0
86  0
87  1
88  0
89  0
90  0
91  0
92  0
93  0
94  0
95  0
96  0
97  0
98  0
99  0
100  0
101  0
102  0
103  0
104  0
105  0
106  0
107  0
108  0
109  0
110  0
111  0
112  0
113  0
114  0
115  0
116  0
117  0
118  0
119  0
120  0
121  0
122  0
123  0
124  0
125  0
126  1
127  0
128  0
129  0
130  0
131  0
132  0
133  0
134  0
135  0
136  0
137  0
138  0
139  0
140  0
141  0
142  0
143  0
144  0
145  0
146  0
147  0
148  0
149  0
150  0
151  0
152  0
153  0
154  0
155  0
156  0
157  0
158  0
159  0
160  0
161  0
162  0
163  0
164  1
165  0
166  3
167  0
168  0
169  0
170  0
171  1
172  1
173  4
174  5
175  5
176  6
177  5
178  8
179  8
180  16
181  15
182  13
183  25
184  19
185  17
186  24
187  22
188  18
189  25
190  32
191  30
192  24
193  36
194  34
195  39
196  43
197  31
198  51
199  72
200  84
201  183
202  340
203  561
204  894
205  1312
206  2043
207  2850
208  3753
209  4894
210  5934
211  6775
212  7943
213  8918
214  9539
215  10180
216  10547
217  10605
218  10716
219  11036
220  10853
221  10681
222  10792
223  10651
224  10646
225  10640
226  10576
227  10263
228  10198
229  10254
230  10187
231  10094
232  10163
233  10132
234  10276
235  10081
236  10188
237  10249
238  10200
239  10341
240  10337
241  10299
242  10325
243  10289
244  10396
245  10351
246  10183
247  10108
248  10140
249  10143
250  10062
251  9904
252  9864
253  9892
254  9944
255  9821
256  9552
257  9414
258  9697
259  9389
260  9398
261  9511
262  9310
263  9372
264  9340
265  8949
266  9161
267  9032
268  8807
269  8870
270  8885
271  8847
272  8575
273  8655
274  8629
275  8565
276  8547
277  8417
278  8468
279  8334
280  8348
281  8595
282  8413
283  8216
284  8346
285  8329
286  8119
287  8239
288  8223
289  8084
290  8189
291  8032
292  8044
293  8104
294  7891
295  7939
296  8168
297  7821
298  7892
299  7804
300  7726
301  7678
302  7814
303  7834
304  7745
305  7686
306  7659
307  7636
308  7632
309  7639
310  7482
311  7657
312  7497
313  7580
314  7670
315  7739
316  7511
317  7542
318  7537
319  7343
320  7507
321  7414
322  7508
323  7389
324  7378
325  7487
326  7418
327  7287
328  7460
329  7509
330  7377
331  7244
332  7178
333  7305
334  7183
335  7373
336  7265
337  7277
338  7346
339  7247
340  7215
341  7170
342  7200
343  7106
344  7104
345  7017
346  7020
347  7141
348  7008
349  7057
350  6846
351  7153
352  7111
353  7066
354  7065
355  6904
356  6998
357  7035
358  6960
359  7132
360  7030
361  7180
362  6985
363  6917
364  7049
365  6961
366  6969
367  6900
368  6982
369  6989
370  6914
371  6823
372  6912
373  6926
374  6988
375  6885
376  6855
377  6764
378  6848
379  6912
380  6857
381  6991
382  6845
383  6731
384  6938
385  6803
386  6876
387  6977
388  6842
389  6825
390  6746
391  6804
392  6736
393  6812
394  6879
395  6547
396  6771
397  6706
398  6909
399  6852
400  6712
401  6635
402  6774
403  6834
404  6610
405  6803
406  6711
407  6707
408  6703
409  6693
410  6573
411  6646
412  6719
413  6729
414  6775
415  6781
416  6656
417  6656
418  6621
419  6551
420  6755
421  6596
422  6684
423  6698
424  6569
425  6565
426  6607
427  6617
428  6625
429  6657
430  6719
431  6560
432  6455
433  6496
434  6500
435  6328
436  6562
437  6587
438  6471
439  6424
440  6474
441  6412
442  6575
443  6450
444  6433
445  6337
446  6408
447  6451
448  6368
449  6511
450  6495
451  6427
452  6417
453  6498
454  6492
455  6354
456  6380
457  6337
458  6380
459  6427
460  6369
461  6317
462  6397
463  6201
464  6403
465  6275
466  6337
467  6392
468  6333
469  6311
470  6388
471  6196
472  6264
473  6273
474  6299
475  6227
476  6242
477  6218
478  6167
479  6331
480  6284
481  6346
482  6226
483  6156
484  6161
485  6328
486  6179
487  6167
488  6115
489  6143
490  6201
491  6140
492  6121
493  6079
494  6277
495  6145
496  6089
497  6069
498  6072
499  6019
500  6129
501  5890
502  6047
503  5961
504  5937
505  6077
506  5972
507  5983
508  5905
509  6087
510  5983
511  5954
512  6003
513  5926
514  5879
515  6155
516  5846
517  5892
518  5825
519  5802
520  5759
521  5871
522  5778
523  5802
524  5854
525  5689
526  5664
527  5701
528  5889
529  5710
530  5705
531  5487
532  5801
533  5647
534  5584
535  5612
536  5695
537  5624
538  5486
539  5502
540  5571
541  5566
542  5480
543  5509
544  5471
545  5345
546  5410
547  5431
548  5302
549  5351
550  5444
551  5411
552  5315
553  5285
554  5112
555  5358
556  5374
557  5290
558  5149
559  5315
560  5274
561  5197
562  5045
563  5165
564  5195
565  4976
566  4892
567  5060
568  5196
569  5058
570  5037
571  4944
572  4931
573  5138
574  4771
575  4829
576  4876
577  4907
578  4701
579  4850
580  4908
581  4813
582  4871
583  4828
584  4853
585  4662
586  4713
587  4712
588  4679
589  4643
590  4777
591  4758
592  4700
593  4654
594  4674
595  4692
596  4587
597  4531
598  4647
599  4495
600  4630
601  4532
602  4432
603  4560
604  4462
605  4466
606  4498
607  4393
608  4354
609  4353
610  4386
611  4365
612  4197
613  4360
614  4250
615  4185
616  4123
617  4068
618  4150
619  4200
620  4093
621  4093
622  4035
623  3907
624  3964
625  3942
626  3842
627  3806
628  3960
629  3864
630  3806
631  3869
632  3731
633  3694
634  3661
635  3572
636  3606
637  3498
638  3471
639  3426
640  3508
641  3368
642  3324
643  3225
644  3271
645  3264
646  3162
647  3036
648  3087
649  3019
650  2935
651  2901
652  2918
653  2877
654  2905
655  2742
656  2643
657  2596
658  2713
659  2534
660  2536
661  2430
662  2413
663  2423
664  2337
665  2246
666  2259
667  2211
668  2084
669  2121
670  2040
671  1934
672  1857
673  1968
674  1910
675  1870
676  1803
677  1667
678  1675
679  1681
680  1563
681  1561
682  1553
683  1458
684  1505
685  1459
686  1326
687  1314
688  1252
689  1235
690  1173
691  1172
692  1153
693  1067
694  1052
695  1089
696  1038
697  993
698  955
699  965
700  908
701  887
702  897
703  809
704  802
705  773
706  804
707  793
708  732
709  711
710  690
711  661
712  637
713  634
714  568
715  610
716  607
717  551
718  562
719  578
720  496
721  500
722  508
723  537
724  477
725  484
726  491
727  471
728  408
729  428
730  396
731  384
732  426
733  383
734  387
735  338
736  415
737  339
738  385
739  381
740  381
741  375
742  330
743  309
744  348
745  338
746  308
747  312
748  303
749  296
750  312
751  310
752  308
753  320
754  291
755  276
756  266
757  275
758  310
759  254
760  294
761  308
762  250
763  269
764  255
765  280
766  249
767  279
768  244
769  245
770  224
771  225
772  240
773  233
774  232
775  264
776  208
777  233
778  172
779  203
780  196
781  186
782  229
783  191
784  191
785  205
786  202
787  195
788  188
789  208
790  163
791  182
792  172
793  149
794  174
795  158
796  197
797  160
798  164
799  188
800  141
801  140
802  146
803  127
804  170
805  136
806  146
807  136
808  137
809  137
810  147
811  133
812  125
813  141
814  116
815  122
816  110
817  126
818  124
819  118
820  127
821  112
822  105
823  114
824  112
825  106
826  104
827  99
828  94
829  90
830  104
831  89
832  97
833  78
834  76
835  82
836  88
837  62
838  81
839  72
840  64
841  60
842  57
843  68
844  77
845  63
846  60
847  60
848  58
849  63
850  40
851  48
852  41
853  51
854  42
855  46
856  43
857  46
858  46
859  44
860  39
861  36
862  43
863  47
864  33
865  37
866  38
867  26
868  32
869  27
870  29
871  26
872  26
873  19
874  21
875  23
876  23
877  23
878  23
879  21
880  25
881  21
882  23
883  15
884  26
885  12
886  15
887  18
888  17
889  23
890  18
891  16
892  16
893  15
894  13
895  13
896  22
897  18
898  18
899  9
900  14
901  13
902  16
903  12
904  7
905  5
906  13
907  11
908  16
909  11
910  14
911  12
912  9
913  12
914  8
915  8
916  10
917  7
918  10
919  11
920  8
921  8
922  10
923  10
924  8
925  9
926  6
927  8
928  7
929  7
930  11
931  7
932  6
933  4
934  4
935  6
936  8
937  7
938  5
939  10
940  5
941  3
942  7
943  13
944  9
945  5
946  9
947  6
948  9
949  6
950  5
951  7
952  5
953  10
954  9
955  3
956  9
957  7
958  12
959  12
960  7
961  6
962  4
963  8
964  9
965  6
966  6
967  11
968  5
969  0
970  4
971  6
972  4
973  2
974  2
975  9
976  5
977  6
978  6
979  5
980  5
981  7
982  8
983  3
984  10
985  4
986  7
987  9
988  4
989  4
990  6
991  7
992  6
993  3
994  7
995  5
996  3
997  12
998  7
999  11
1000  5
1001  8
1002  5
1003  3
1004  9
1005  5
1006  3
1007  2
1008  2
1009  8
1010  6
1011  3
1012  5
1013  5
1014  5
1015  8
1016  10
1017  1
1018  3
1019  11
1020  6
1021  3
1022  3
1023  6
1024  3
1025  3
1026  6
1027  6
1028  4
1029  5
1030  8
1031  1
1032  3
1033  8
1034  8
1035  9
1036  4
1037  2
1038  5
1039  7
1040  3
1041  8
1042  4
1043  3
1044  5
1045  5
1046  1
1047  3
1048  6
1049  3
1050  3
1051  2
1052  5
1053  2
1054  3
1055  7
1056  4
1057  2
1058  4
1059  4
1060  3
1061  3
1062  2
1063  4
1064  1
1065  4
1066  9
1067  5
1068  2
1069  5
1070  3
1071  1
1072  3
1073  0
1074  1
1075  3
1076  1
1077  4
1078  4
1079  2
1080  2
1081  1
1082  0
1083  5
1084  4
1085  0
1086  5
1087  0
1088  4
1089  5
1090  4
1091  5
1092  0
1093  6
1094  0
1095  3
1096  3
1097  2
1098  1
1099  0
1100  0
1101  3
1102  3
1103  2
1104  4
1105  2
1106  1
1107  3
1108  3
1109  2
1110  3
1111  2
1112  3
1113  3
1114  3
1115  2
1116  3
1117  3
1118  0
1119  0
1120  3
1121  3
1122  4
1123  1
1124  4
1125  2
1126  0
1127  4
1128  4
1129  2
1130  1
1131  1
1132  4
1133  1
1134  3
1135  1
1136  1
1137  1
1138  1
1139  3
1140  0
1141  2
1142  5
1143  2
1144  2
1145  0
1146  2
1147  2
1148  2
1149  2
1150  1
1151  2
1152  1
1153  2
1154  2
1155  0
1156  2
1157  7
1158  0
1159  4
1160  4
1161  1
1162  3
1163  0
1164  1
1165  0
1166  1
1167  2
1168  1
1169  0
1170  4
1171  1
1172  3
1173  0
1174  2
1175  0
1176  4
1177  1
1178  4
1179  3
1180  3
1181  2
1182  2
1183  0
1184  0
1185  5
1186  4
1187  0
1188  2
1189  0
1190  2
1191  3
1192  0
1193  0
1194  2
1195  0
1196  2
1197  1
1198  5
1199  2
1200  2
1201  1
1202  1
1203  1
1204  2
1205  0
1206  3
1207  2
1208  4
1209  3
1210  2
1211  2
1212  0
1213  0
1214  1
1215  3
1216  2
1217  1
1218  1
1219  1
1220  3
1221  2
1222  3
1223  1
1224  1
1225  2
1226  0
1227  1
1228  2
1229  2
1230  1
1231  1
1232  1
1233  3
1234  1
1235  3
1236  0
1237  1
1238  2
1239  2
1240  0
1241  0
1242  1
1243  3
1244  2
1245  0
1246  3
1247  3
1248  1
1249  2
1250  1
1251  0
1252  0
1253  0
1254  3
1255  4
1256  0
1257  1
1258  0
1259  0
1260  0
1261  2
1262  1
1263  1
1264  1
1265  0
1266  0
1267  2
1268  1
1269  1
1270  0
1271  2
1272  0
1273  1
1274  6
1275  1
1276  2
1277  2
1278  0
1279  1
1280  2
1281  1
1282  1
1283  2
1284  0
1285  3
1286  2
1287  1
1288  0
1289  0
1290  0
1291  0
1292  2
1293  1
1294  1
1295  1
1296  0
1297  3
1298  1
1299  0
1300  1
1301  1
1302  2
1303  1
1304  0
1305  1
1306  0
1307  1
1308  1
1309  0
1310  1
1311  1
1312  0
1313  2
1314  1
1315  1
1316  0
1317  1
1318  2
1319  1
1320  1
1321  2
1322  1
1323  0
1324  0
1325  1
1326  0
1327  0
1328  0
1329  1
1330  1
1331  0
1332  1
1333  1
1334  2
1335  0
1336  2
1337  0
1338  1
1339  1
1340  0
1341  0
1342  3
1343  0
1344  0
1345  5
1346  0
1347  1
1348  1
1349  2
1350  2
1351  0
1352  0
1353  0
1354  1
1355  0
1356  0
1357  0
1358  1
1359  2
1360  4
1361  0
1362  0
1363  0
1364  0
1365  1
1366  1
1367  2
1368  1
1369  0
1370  1
1371  0
1372  0
1373  0
1374  1
1375  2
1376  0
1377  0
1378  0
1379  0
1380  1
1381  0
1382  1
1383  0
1384  0
1385  0
1386  2
1387  1
1388  2
1389  0
1390  1
1391  2
1392  1
1393  0
1394  2
1395  1
1396  0
1397  1
1398  2
1399  1
1400  1
1401  0
1402  1
1403  1
1404  0
1405  1
1406  1
1407  0
1408  1
1409  2
1410  2
1411  1
1412  0
1413  0
1414  0
1415  0
1416  2
1417  0
1418  1
1419  2
1420  1
1421  0
1422  2
1423  0
1424  0
1425  0
1426  3
1427  1
1428  2
1429  0
1430  3
1431  0
1432  2
1433  1
1434  3
1435  3
1436  1
1437  0
1438  2
1439  1
1440  0
1441  0
1442  2
1443  0
1444  0
1445  0
1446  1
1447  1
1448  0
1449  0
1450  0
1451  2
1452  1
1453  0
1454  2
1455  1
1456  3
1457  0
1458  1
1459  0
1460  1
1461  2
1462  0
1463  0
1464  0
1465  0
1466  0
1467  1
1468  4
1469  0
1470  0
1471  4
1472  1
1473  0
1474  0
1475  0
1476  2
1477  2
1478  0
1479  0
1480  0
1481  0
1482  0
1483  0
1484  1
1485  0
1486  0
1487  2
1488  1
1489  1
1490  0
1491  0
1492  3
1493  1
1494  1
1495  0
1496  3
1497  1
1498  0
1499  0
1500  1
1501  0
1502  0
1503  0
1504  2
1505  0
1506  0
1507  1
1508  0
1509  0
1510  2
1511  0
1512  2
1513  2
1514  1
1515  1
1516  1
1517  0
1518  0
1519  0
1520  1
1521  1
1522  0
1523  2
1524  1
1525  0
1526  3
1527  2
1528  1
1529  0
1530  3
1531  0
1532  4
1533  3
1534  3
1535  1
1536  0
1537  2
1538  1
1539  1
1540  1
1541  1
1542  1
1543  1
1544  1
1545  1
1546  2
1547  1
1548  1
1549  1
1550  0
1551  1
1552  3
1553  1
1554  1
1555  0
1556  0
1557  1
1558  2
1559  0
1560  0
1561  0
1562  4
1563  3
1564  0
1565  0
1566  1
1567  0
1568  1
1569  0
1570  1
1571  0
1572  0
1573  1
1574  0
1575  1
1576  0
1577  1
1578  0
1579  1
1580  0
1581  0
1582  0
1583  1
1584  2
1585  1
1586  2
1587  1
1588  1
1589  0
1590  1
1591  0
1592  0
1593  1
1594  2
1595  1
1596  0
1597  1
1598  0
1599  1
1600  1
1601  0
1602  2
1603  0
1604  0
1605  0
1606  3
1607  1
1608  2
1609  1
1610  2
1611  1
1612  1
1613  3
1614  0
1615  4
1616  1
1617  0
1618  3
1619  1
1620  1
1621  2
1622  2
1623  0
1624  2
1625  0
1626  0
1627  3
1628  3
1629  1
1630  0
1631  1
1632  2
1633  2
1634  3
1635  2
1636  1
1637  1
1638  0
1639  4
1640  3
1641  0
1642  2
1643  0
1644  0
1645  0
1646  2
1647  1
1648  0
1649  2
1650  0
1651  1
1652  2
1653  0
1654  1
1655  2
1656  0
1657  2
1658  0
1659  0
1660  2
1661  1
1662  1
1663  0
1664  3
1665  1
1666  3
1667  0
1668  1
1669  2
1670  0
1671  2
1672  0
1673  1
1674  1
1675  1
1676  2
1677  1
1678  2
1679  1
1680  0
1681  0
1682  2
1683  1
1684  2
1685  0
1686  2
1687  1
1688  0
1689  1
1690  0
1691  2
1692  0
1693  0
1694  0
1695  0
1696  0
1697  1
1698  1
1699  1
1700  0
1701  1
1702  0
1703  1
1704  1
1705  1
1706  1
1707  1
1708  2
1709  1
1710  1
1711  2
1712  0
1713  2
1714  2
1715  3
1716  2
1717  0
1718  0
1719  0
1720  4
1721  0
1722  1
1723  1
1724  1
1725  1
1726  0
1727  0
1728  0
1729  2
1730  2
1731  1
1732  3
1733  0
1734  3
1735  2
1736  2
1737  1
1738  2
1739  1
1740  0
1741  0
1742  1
1743  1
1744  1
1745  2
1746  1
1747  2
1748  1
1749  0
1750  1
1751  2
1752  1
1753  0
1754  0
1755  0
1756  1
1757  1
1758  0
1759  2
1760  0
1761  1
1762  1
1763  1
1764  1
1765  1
1766  1
1767  0
1768  1
1769  2
1770  0
1771  3
1772  2
1773  0
1774  1
1775  0
1776  2
1777  2
1778  1
1779  2
1780  0
1781  0
1782  0
1783  0
1784  1
1785  2
1786  2
1787  1
1788  1
1789  5
1790  1
1791  2
1792  1
1793  2
1794  2
1795  0
1796  1
1797  3
1798  3
1799  1
1800  1
1801  1
1802  2
1803  3
1804  0
1805  4
1806  2
1807  0
1808  2
1809  2
1810  3
1811  0
1812  2
1813  2
1814  1
1815  0
1816  2
1817  1
1818  2
1819  3
1820  0
1821  1
1822  1
1823  2
1824  1
1825  3
1826  1
1827  1
1828  0
1829  1
1830  3
1831  1
1832  1
1833  1
1834  2
1835  2
1836  1
1837  2
1838  0
1839  1
1840  0
1841  0
1842  1
1843  5
1844  3
1845  1
1846  1
1847  1
1848  1
1849  1
1850  1
1851  0
1852  2
1853  1
1854  3
1855  2
1856  0
1857  2
1858  2
1859  3
1860  0
1861  0
1862  1
1863  0
1864  1
1865  1
1866  2
1867  1
1868  4
1869  0
1870  1
1871  0
1872  1
1873  1
1874  2
1875  0
1876  2
1877  2
1878  1
1879  2
1880  2
1881  2
1882  1
1883  3
1884  2
1885  4
1886  3
1887  0
1888  1
1889  1
1890  3
1891  0
1892  0
1893  0
1894  1
1895  2
1896  1
1897  0
1898  3
1899  0
1900  1
1901  2
1902  2
1903  1
1904  1
1905  1
1906  1
1907  2
1908  0
1909  1
1910  1
1911  2
1912  0
1913  0
1914  1
1915  1
1916  1
1917  3
1918  1
1919  0
1920  0
1921  3
1922  0
1923  1
1924  0
1925  0
1926  0
1927  0
1928  1
1929  2
1930  0
1931  1
1932  0
1933  3
1934  0
1935  0
1936  1
1937  0
1938  2
1939  1
1940  1
1941  1
1942  1
1943  2
1944  0
1945  1
1946  2
1947  0
1948  0
1949  2
1950  2
1951  0
1952  0
1953  0
1954  4
1955  0
1956  1
1957  0
1958  1
1959  2
1960  1
1961  1
1962  0
1963  2
1964  0
1965  1
1966  1
1967  2
1968  2
1969  0
1970  1
1971  5
1972  1
1973  1
1974  1
1975  1
1976  0
1977  2
1978  1
1979  1
1980  1
1981  1
1982  0
1983  2
1984  1
1985  4
1986  1
1987  0
1988  0
1989  1
1990  0
1991  1
1992  2
1993  1
1994  2
1995  2
1996  0
1997  1
1998  1
1999  2
2000  1
2001  2
2002  0
2003  2
2004  1
2005  0
2006  0
2007  0
2008  2
2009  2
2010  0
2011  1
2012  1
2013  1
2014  1
2015  0
2016  0
2017  2
2018  4
2019  0
2020  2
2021  0
2022  0
2023  0
2024  0
2025  3
2026  3
2027  0
2028  1
2029  0
2030  2
2031  0
2032  1
2033  3
2034  1
2035  2
2036  0
2037  3
2038  1
2039  0
2040  3
2041  0
2042  1
2043  0
2044  0
2045  1
2046  1
2047  1
2048  0
2049  0
2050  0
2051  0
2052  2
2053  1
2054  1
2055  2
2056  1
2057  2
2058  1
2059  2
2060  1
2061  2
2062  1
2063  0
2064  1
2065  0
2066  0
2067  2
2068  0
2069  2
2070  1
2071  2
2072  1
2073  2
2074  1
2075  0
2076  3
2077  1
2078  2
2079  1
2080  1
2081  1
2082  0
2083  0
2084  2
2085  1
2086  2
2087  0
2088  1
2089  0
2090  1
2091  2
2092  3
2093  1
2094  2
2095  2
2096  0
2097  1
2098  1
2099  2
2100  1
2101  1
2102  2
2103  0
2104  0
2105  0
2106  0
2107  2
2108  1
2109  1
2110  3
2111  3
2112  1
2113  0
2114  1
2115  2
2116  2
2117  2
2118  0
2119  2
2120  3
2121  0
2122  0
2123  1
2124  2
2125  2
2126  0
2127  1
2128  0
2129  0
2130  0
2131  0
2132  0
2133  1
2134  1
2135  0
2136  2
2137  1
2138  3
2139  2
2140  1
2141  2
2142  0
2143  0
2144  1
2145  0
2146  0
2147  1
2148  0
2149  1
2150  2
2151  6
2152  1
2153  0
2154  2
2155  0
2156  0
2157  2
2158  0
2159  2
2160  2
2161  0
2162  1
2163  1
2164  0
2165  1
2166  1
2167  1
2168  3
2169  1
2170  1
2171  2
2172  1
2173  0
2174  0
2175  1
2176  0
2177  1
2178  0
2179  1
2180  0
2181  1
2182  1
2183  1
2184  2
2185  2
2186  0
2187  0
2188  1
2189  0
2190  1
2191  1
2192  2
2193  1
2194  0
2195  2
2196  0
2197  0
2198  1
2199  0
2200  1
2201  2
2202  0
2203  1
2204  1
2205  2
2206  0
2207  1
2208  3
2209  1
2210  0
2211  0
2212  0
2213  2
2214  0
2215  1
2216  2
2217  0
2218  4
2219  1
2220  2
2221  1
2222  1
2223  1
2224  1
2225  1
2226  2
2227  0
2228  1
2229  1
2230  1
2231  1
2232  2
2233  3
2234  0
2235  1
2236  1
2237  1
2238  2
2239  0
2240  1
2241  1
2242  1
2243  1
2244  0
2245  2
2246  1
2247  3
2248  2
2249  1
2250  3
2251  1
2252  0
2253  1
2254  1
2255  0
2256  1
2257  1
2258  0
2259  0
2260  1
2261  1
2262  0
2263  2
2264  3
2265  2
2266  1
2267  0
2268  1
2269  1
2270  0
2271  1
2272  1
2273  1
2274  0
2275  0
2276  2
2277  0
2278  0
2279  1
2280  1
2281  1
2282  0
2283  0
2284  2
2285  0
2286  0
2287  1
2288  1
2289  0
2290  1
2291  0
2292  1
2293  0
2294  3
2295  0
2296  2
2297  1
2298  0
2299  2
2300  1
2301  0
2302  0
2303  1
2304  1
2305  0
2306  0
2307  3
2308  3
2309  0
2310  1
2311  2
2312  1
2313  0
2314  2
2315  2
2316  1
2317  1
2318  0
2319  2
2320  0
2321  0
2322  2
2323  1
2324  0
2325  1
2326  1
2327  4
2328  0
2329  1
2330  1
2331  2
2332  0
2333  0
2334  1
2335  2
2336  2
2337  1
2338  1
2339  1
2340  2
2341  0
2342  1
2343  0
2344  0
2345  2
2346  1
2347  0
2348  0
2349  2
2350  0
2351  1
2352  0
2353  2
2354  0
2355  0
2356  0
2357  1
2358  0
2359  0
2360  0
2361  0
2362  1
2363  1
2364  0
2365  3
2366  0
2367  0
2368  2
2369  1
2370  2
2371  0
2372  1
2373  1
2374  0
2375  1
2376  0
2377  1
2378  0
2379  3
2380  1
2381  1
2382  1
2383  0
2384  2
2385  1
2386  0
2387  0
2388  0
2389  1
2390  0
2391  2
2392  0
2393  2
2394  2
2395  1
2396  0
2397  1
2398  1
2399  2
2400  3
2401  0
2402  1
2403  0
2404  0
2405  3
2406  1
2407  1
2408  2
2409  0
2410  0
2411  0
2412  1
2413  2
2414  2
2415  0
2416  2
2417  0
2418  1
2419  1
2420  2
2421  2
2422  0
2423  1
2424  4
2425  1
2426  2
2427  3
2428  0
2429  2
2430  2
2431  1
2432  2
2433  1
2434  0
2435  1
2436  1
2437  2
2438  0
2439  0
2440  0
2441  1
2442  2
2443  0
2444  2
2445  2
2446  0
2447  1
2448  0
2449  3
2450  0
2451  1
2452  1
2453  0
2454  2
2455  1
2456  1
2457  0
2458  0
2459  0
2460  1
2461  1
2462  1
2463  2
2464  0
2465  1
2466  1
2467  1
2468  0
2469  1
2470  0
2471  0
2472  1
2473  1
2474  3
2475  1
2476  0
2477  0
2478  0
2479  0
2480  1
2481  1
2482  0
2483  0
2484  2
2485  2
2486  3
2487  2
2488  1
2489  0
2490  1
2491  2
2492  1
2493  3
2494  4
2495  2
2496  0
2497  1
2498  0
2499  0
2500  2
2501  0
2502  1
2503  2
2504  1
2505  1
2506  3
2507  3
2508  0
2509  0
2510  3
2511  0
2512  1
2513  2
2514  0
2515  0
2516  2
2517  1
2518  0
2519  1
2520  1
2521  0
2522  0
2523  2
2524  1
2525  0
2526  0
2527  1
2528  0
2529  3
2530  0
2531  0
2532  0
2533  0
2534  0
2535  0
2536  5
2537  1
2538  0
2539  1
2540  0
2541  1
2542  1
2543  2
2544  0
2545  1
2546  0
2547  1
2548  0
2549  0
2550  0
2551  0
2552  3
2553  1
2554  0
2555  1
2556  2
2557  1
2558  2
2559  1
2560  2
2561  0
2562  2
2563  1
2564  1
2565  1
2566  1
2567  0
2568  0
2569  1
2570  1
2571  0
2572  1
2573  0
2574  2
2575  2
2576  3
2577  1
2578  0
2579  2
2580  0
2581  1
2582  0
2583  0
2584  0
2585  1
2586  0
2587  1
2588  1
2589  3
2590  2
2591  1
2592  1
2593  1
2594  0
2595  3
2596  1
2597  1
2598  1
2599  2
2600  3
2601  2
2602  2
2603  1
2604  1
2605  2
2606  2
2607  2
2608  0
2609  1
2610  0
2611  2
2612  0
2613  1
2614  1
2615  2
2616  1
2617  0
2618  0
2619  1
2620  0
2621  3
2622  0
2623  3
2624  1
2625  2
2626  0
2627  1
2628  0
2629  0
2630  1
2631  0
2632  1
2633  1
2634  1
2635  0
2636  1
2637  0
2638  1
2639  0
2640  1
2641  1
2642  0
2643  2
2644  0
2645  0
2646  1
2647  1
2648  3
2649  0
2650  0
2651  1
2652  0
2653  1
2654  0
2655  0
2656  1
2657  0
2658  3
2659  1
2660  2
2661  0
2662  2
2663  1
2664  0
2665  0
2666  2
2667  2
2668  3
2669  1
2670  1
2671  0
2672  0
2673  2
2674  1
2675  4
2676  0
2677  0
2678  2
2679  0
2680  2
2681  1
2682  0
2683  1
2684  1
2685  1
2686  0
2687  0
2688  2
2689  0
2690  0
2691  0
2692  1
2693  1
2694  1
2695  1
2696  0
2697  0
2698  1
2699  2
2700  1
2701  2
2702  1
2703  2
2704  1
2705  0
2706  3
2707  1
2708  0
2709  1
2710  3
2711  3
2712  1
2713  1
2714  0
2715  0
2716  1
2717  1
2718  3
2719  1
2720  2
2721  0
2722  0
2723  0
2724  0
2725  0
2726  1
2727  1
2728  1
2729  1
2730  1
2731  1
2732  0
2733  0
2734  1
2735  1
2736  1
2737  1
2738  0
2739  0
2740  2
2741  0
2742  1
2743  1
2744  2
2745  1
2746  0
2747  4
2748  0
2749  4
2750  0
2751  1
2752  1
2753  1
2754  0
2755  0
2756  3
2757  2
2758  0
2759  1
2760  0
2761  1
2762  1
2763  0
2764  0
2765  0
2766  2
2767  2
2768  2
2769  0
2770  2
2771  0
2772  1
2773  2
2774  1
2775  0
2776  1
2777  3
2778  0
2779  2
2780  1
2781  1
2782  1
2783  1
2784  0
2785  1
2786  0
2787  1
2788  0
2789  0
2790  0
2791  1
2792  0
2793  0
2794  1
2795  0
2796  1
2797  0
2798  2
2799  0
2800  1
2801  2
2802  2
2803  1
2804  1
2805  1
2806  2
2807  0
2808  0
2809  1
2810  2
2811  1
2812  1
2813  1
2814  1
2815  0
2816  0
2817  2
2818  1
2819  1
2820  1
2821  2
2822  2
2823  1
2824  0
2825  0
2826  1
2827  3
2828  1
2829  3
2830  2
2831  1
2832  3
2833  0
2834  0
2835  2
2836  0
2837  0
2838  1
2839  1
2840  0
2841  1
2842  2
2843  0
2844  1
2845  0
2846  1
2847  0
2848  1
2849  0
2850  1
2851  1
2852  0
2853  1
2854  4
2855  0
2856  1
2857  0
2858  1
2859  1
2860  3
2861  0
2862  0
2863  1
2864  2
2865  2
2866  0
2867  0
2868  0
2869  0
2870  2
2871  1
2872  0
2873  0
2874  2
2875  1
2876  0
2877  1
2878  1
2879  3
2880  1
2881  0
2882  0
2883  1
2884  0
2885  0
2886  2
2887  3
2888  0
2889  0
2890  1
2891  0
2892  1
2893  1
2894  1
2895  0
2896  0
2897  0
2898  1
2899  1
2900  0
2901  0
2902  1
2903  1
2904  1
2905  1
2906  0
2907  0
2908  2
2909  1
2910  3
2911  0
2912  2
2913  0
2914  2
2915  1
2916  1
2917  0
2918  0
2919  1
2920  0
2921  0
2922  1
2923  1
2924  2
2925  0
2926  1
2927  0
2928  1
2929  0
2930  4
2931  0
2932  2
2933  2
2934  3
2935  1
2936  0
2937  3
2938  1
2939  0
2940  0
2941  0
2942  1
2943  0
2944  3
2945  2
2946  1
2947  1
2948  1
2949  2
2950  1
2951  1
2952  1
2953  2
2954  0
2955  0
2956  0
2957  0
2958  1
2959  1
2960  0
2961  3
2962  0
2963  0
2964  0
2965  1
2966  2
2967  1
2968  0
2969  1
2970  1
2971  1
2972  1
2973  1
2974  0
2975  3
2976  0
2977  0
2978  0
2979  1
2980  2
2981  0
2982  0
2983  0
2984  0
2985  0
2986  2
2987  0
2988  0
2989  3
2990  1
2991  1
2992  3
2993  0
2994  3
2995  1
2996  0
2997  0
2998  3
2999  0
3000  1
3001  0
3002  0
3003  0
3004  2
3005  0
3006  1
3007  0
3008  4
3009  1
3010  3
3011  1
3012  0
3013  2
3014  2
3015  0
3016  2
3017  0
3018  1
3019  1
3020  0
3021  0
3022  0
3023  0
3024  0
3025  0
3026  2
3027  0
3028  2
3029  2
3030  0
3031  0
3032  1
3033  1
3034  2
3035  1
3036  0
3037  0
3038  0
3039  0
3040  0
3041  0
3042  0
3043  1
3044  0
3045  0
3046  1
3047  1
3048  0
3049  1
3050  0
3051  1
3052  0
3053  1
3054  0
3055  0
3056  0
3057  1
3058  0
3059  0
3060  1
3061  1
3062  0
3063  0
3064  1
3065  1
3066  1
3067  2
3068  1
3069  0
3070  0
3071  0
3072  2
3073  1
3074  1
3075  0
3076  0
3077  0
3078  0
3079  1
3080  0
3081  0
3082  0
3083  0
3084  2
3085  1
3086  1
3087  0
3088  1
3089  1
3090  2
3091  1
3092  1
3093  3
3094  2
3095  0
3096  1
3097  0
3098  2
3099  2
3100  1
3101  0
3102  2
3103  0
3104  4
3105  1
3106  1
3107  0
3108  2
3109  0
3110  0
3111  1
3112  0
3113  0
3114  1
3115  1
3116  2
3117  1
3118  0
3119  2
3120  0
3121  1
3122  2
3123  1
3124  0
3125  0
3126  2
3127  2
3128  0
3129  1
3130  0
3131  1
3132  2
3133  0
3134  2
3135  1
3136  2
3137  5
3138  0
3139  1
3140  0
3141  1
3142  0
3143  0
3144  0
3145  1
3146  2
3147  2
3148  0
3149  1
3150  5
3151  0
3152  2
3153  1
3154  1
3155  0
3156  0
3157  0
3158  3
3159  2
3160  1
3161  1
3162  2
3163  2
3164  1
3165  1
3166  1
3167  1
3168  0
3169  1
3170  1
3171  1
3172  3
3173  2
3174  0
3175  0
3176  2
3177  0
3178  1
3179  2
3180  0
3181  2
3182  1
3183  1
3184  1
3185  1
3186  1
3187  0
3188  0
3189  1
3190  1
3191  3
3192  0
3193  0
3194  3
3195  4
3196  2
3197  0
3198  1
3199  2
3200  0
3201  2
3202  0
3203  0
3204  2
3205  1
3206  2
3207  0
3208  0
3209  1
3210  0
3211  2
3212  0
3213  0
3214  1
3215  0
3216  0
3217  1
3218  0
3219  1
3220  1
3221  0
3222  0
3223  1
3224  1
3225  3
3226  0
3227  2
3228  1
3229  0
3230  3
3231  1
3232  1
3233  2
3234  2
3235  2
3236  1
3237  0
3238  0
3239  2
3240  1
3241  0
3242  0
3243  0
3244  2
3245  0
3246  0
3247  3
3248  2
3249  1
3250  1
3251  1
3252  1
3253  1
3254  1
3255  1
3256  0
3257  0
3258  0
3259  1
3260  0
3261  1
3262  0
3263  0
3264  2
3265  2
3266  0
3267  1
3268  0
3269  0
3270  1
3271  0
3272  1
3273  2
3274  1
3275  0
3276  0
3277  0
3278  1
3279  0
3280  1
3281  0
3282  3
3283  2
3284  2
3285  1
3286  0
3287  1
3288  2
3289  0
3290  0
3291  1
3292  1
3293  0
3294  1
3295  2
3296  1
3297  4
3298  0
3299  2
3300  1
3301  1
3302  1
3303  0
3304  0
3305  0
3306  3
3307  2
3308  1
3309  0
3310  3
3311  0
3312  0
3313  0
3314  0
3315  0
3316  1
3317  2
3318  1
3319  2
3320  1
3321  0
3322  2
3323  1
3324  2
3325  1
3326  1
3327  1
3328  1
3329  0
3330  0
3331  1
3332  1
3333  0
3334  0
3335  1
3336  1
3337  1
3338  0
3339  0
3340  1
3341  1
3342  2
3343  2
3344  0
3345  0
3346  1
3347  0
3348  1
3349  0
3350  0
3351  0
3352  1
3353  0
3354  0
3355  1
3356  1
3357  0
3358  0
3359  0
3360  1
3361  0
3362  0
3363  2
3364  3
3365  1
3366  1
3367  1
3368  0
3369  1
3370  1
3371  1
3372  2
3373  2
3374  0
3375  2
3376  1
3377  0
3378  0
3379  1
3380  0
3381  1
3382  1
3383  0
3384  1
3385  2
3386  0
3387  0
3388  0
3389  0
3390  2
3391  1
3392  0
3393  1
3394  2
3395  1
3396  1
3397  2
3398  1
3399  0
3400  3
3401  0
3402  0
3403  1
3404  1
3405  1
3406  0
3407  1
3408  1
3409  0
3410  0
3411  1
3412  1
3413  0
3414  0
3415  3
3416  0
3417  0
3418  0
3419  0
3420  0
3421  0
3422  2
3423  0
3424  2
3425  1
3426  1
3427  1
3428  1
3429  0
3430  5
3431  0
3432  0
3433  1
3434  0
3435  0
3436  1
3437  3
3438  4
3439  0
3440  2
3441  0
3442  0
3443  0
3444  0
3445  1
3446  1
3447  3
3448  1
3449  1
3450  1
3451  1
3452  1
3453  0
3454  1
3455  0
3456  0
3457  0
3458  1
3459  1
3460  0
3461  1
3462  1
3463  0
3464  2
3465  1
3466  0
3467  0
3468  0
3469  0
3470  1
3471  0
3472  0
3473  1
3474  0
3475  0
3476  1
3477  1
3478  2
3479  1
3480  0
3481  1
3482  2
3483  0
3484  1
3485  0
3486  0
3487  1
3488  2
3489  1
3490  3
3491  0
3492  2
3493  3
3494  1
3495  2
3496  0
3497  1
3498  0
3499  2
3500  3
3501  0
3502  1
3503  1
3504  1
3505  1
3506  1
3507  4
3508  1
3509  2
3510  1
3511  1
3512  0
3513  1
3514  1
3515  0
3516  0
3517  1
3518  1
3519  1
3520  1
3521  0
3522  2
3523  1
3524  1
3525  3
3526  2
3527  0
3528  1
3529  0
3530  0
3531  1
3532  1
3533  0
3534  2
3535  1
3536  0
3537  0
3538  0
3539  2
3540  1
3541  0
3542  2
3543  1
3544  1
3545  0
3546  0
3547  0
3548  0
3549  1
3550  2
3551  0
3552  0
3553  1
3554  1
3555  1
3556  0
3557  1
3558  0
3559  0
3560  1
3561  0
3562  1
3563  0
3564  1
3565  1
3566  1
3567  2
3568  1
3569  1
3570  0
3571  0
3572  0
3573  1
3574  2
3575  1
3576  1
3577  1
3578  0
3579  0
3580  0
3581  1
3582  0
3583  2
3584  3
3585  0
3586  2
3587  2
3588  0
3589  3
3590  1
3591  0
3592  0
3593  1
3594  0
3595  0
3596  1
3597  1
3598  0
3599  0
3600  1
3601  1
3602  2
3603  1
3604  0
3605  0
3606  0
3607  3
3608  2
3609  1
3610  0
3611  0
3612  1
3613  0
3614  0
3615  0
3616  1
3617  2
3618  0
3619  0
3620  0
3621  0
3622  1
3623  0
3624  2
3625  2
3626  0
3627  0
3628  2
3629  1
3630  0
3631  0
3632  1
3633  0
3634  1
3635  0
3636  1
3637  0
3638  1
3639  0
3640  2
3641  1
3642  0
3643  0
3644  1
3645  1
3646  0
3647  0
3648  1
3649  0
3650  0
3651  2
3652  0
3653  0
3654  1
3655  0
3656  0
3657  1
3658  1
3659  0
3660  2
3661  0
3662  1
3663  0
3664  1
3665  0
3666  0
3667  1
3668  0
3669  0
3670  3
3671  0
3672  3
3673  0
3674  1
3675  0
3676  0
3677  0
3678  1
3679  1
3680  1
3681  0
3682  0
3683  0
3684  0
3685  0
3686  0
3687  0
3688  1
3689  2
3690  0
3691  0
3692  0
3693  1
3694  1
3695  0
3696  1
3697  0
3698  3
3699  1
3700  2
3701  1
3702  1
3703  0
3704  0
3705  1
3706  1
3707  0
3708  1
3709  0
3710  1
3711  0
3712  0
3713  1
3714  1
3715  3
3716  4
3717  0
3718  3
3719  0
3720  0
3721  0
3722  0
3723  1
3724  1
3725  0
3726  1
3727  0
3728  0
3729  0
3730  0
3731  0
3732  0
3733  2
3734  0
3735  1
3736  1
3737  0
3738  0
3739  0
3740  0
3741  0
3742  0
3743  0
3744  2
3745  2
3746  1
3747  0
3748  2
3749  1
3750  0
3751  0
3752  1
3753  0
3754  0
3755  0
3756  2
3757  0
3758  0
3759  1
3760  1
3761  0
3762  0
3763  1
3764  2
3765  0
3766  5
3767  2
3768  2
3769  2
3770  2
3771  7
3772  4
3773  6
3774  2
3775  7
3776  7
3777  1
3778  4
3779  5
3780  0
3781  5
3782  2
3783  5
3784  4
3785  4
3786  5
3787  4
3788  1
3789  0
3790  3
3791  6
3792  7
3793  3
3794  4
3795  2
3796  5
3797  9
3798  6
3799  16
3800  13
3801  16
3802  18
3803  26
3804  26
3805  29
3806  23
3807  25
3808  27
3809  32
3810  30
3811  30
3812  21
3813  23
3814  20
3815  23
3816  22
3817  19
3818  22
3819  26
3820  14
3821  20
3822  19
3823  9
3824  6
3825  9
3826  12
3827  7
3828  8
3829  7
3830  5
3831  7
3832  3
3833  4
3834  3
3835  7
3836  3
3837  5
3838  1
3839  3
3840  0
3841  0
3842  0
3843  0
3844  0
3845  0
3846  0
3847  0
3848  0
3849  0
3850  0
3851  0
3852  0
3853  0
3854  0
3855  0
3856  0
3857  0
3858  0
3859  0
3860  0
3861  0
3862  0
3863  0
3864  0
3865  0
3866  0
3867  0
3868  0
3869  0
3870  0
3871  0
3872  0
3873  0
3874  0
3875  0
3876  0
3877  0
3878  0
3879  0
3880  0
3881  0
3882  0
3883  0
3884  0
3885  0
3886  0
3887  0
3888  0
3889  0
3890  0
3891  0
3892  0
3893  0
3894  0
3895  0
3896  0
3897  0
3898  0
3899  0
3900  0
3901  0
3902  0
3903  0
3904  0
3905  0
3906  0
3907  0
3908  0
3909  0
3910  0
3911  0
3912  0
3913  0
3914  0
3915  0
3916  0
3917  0
3918  0
3919  0
3920  0
3921  0
3922  0
3923  0
3924  0
3925  0
3926  0
3927  0
3928  0
3929  0
3930  0
3931  0
3932  0
3933  0
3934  0
3935  0
3936  0
3937  0
3938  0
3939  0
3940  0
3941  0
3942  0
3943  0
3944  0
3945  0
3946  0
3947  0
3948  0
3949  0
3950  0
3951  0
3952  0
3953  0
3954  0
3955  0
3956  0
3957  0
3958  0
3959  0
3960  0
3961  0
3962  0
3963  0
3964  0
3965  0
3966  0
3967  0
3968  0
3969  0
3970  0
3971  0
3972  0
3973  0
3974  0
3975  0
3976  0
3977  0
3978  0
3979  0
3980  0
3981  0
3982  0
3983  0
3984  0
3985  0
3986  0
3987  0
3988  0
3989  0
3990  0
3991  0
3992  0
3993  0
3994  0
3995  0
3996  0
3997  0
3998  0
3999  0
4000  0
4001  0
4002  0
4003  0
4004  0
4005  0
4006  0
4007  0
4008  0
4009  0
4010  0
4011  0
4012  0
4013  0
4014  0
4015  0
4016  0
4017  0
4018  0
4019  0
4020  0
4021  0
4022  0
4023  0
4024  0
4025  0
4026  0
4027  0
4028  0
4029  0
4030  0
4031  0
4032  0
4033  0
4034  0
4035  0
4036  0
4037  0
4038  0
4039  0
4040  0
4041  0
4042  0
4043  0
4044  0
4045  0
4046  0
4047  0
4048  0
4049  0
4050  0
4051  0
4052  0
4053  0
4054  0
4055  0
4056  0
4057  0
4058  0
4059  0
4060  0
4061  0
4062  0
4063  0
4064  0
4065  0
4066  0
4067  0
4068  0
4069  0
4070  0
4071  0
4072  0
4073  0
4074  0
4075  0
4076  0
4077  0
4078  0
4079  0
4080  0
4081  0
4082  0
4083  0
4084  0
4085  0
4086  0
4087  0
4088  0
4089  0
4090  0
4091  0
4092  0
4093  0
4094  0
4095  0
