0  0
1  0
2  0
3  0
4  0
5  0
6  0
7  0
8  0
9  0
10  0
11  0
12  0
13  0
14  0
15  0
16  0
17  3
18  56
19  236
20  351
21  256
22  124
23  68
24  46
25  55
26  60
27  43
28  46
29  56
30  54
31  65
32  63
33  40
34  48
35  44
36  52
37  48
38  61
39  51
40  40
41  39
42  28
43  20
44  13
45  15
46  6
47  3
48  0
49  0
50  0
51  0
52  0
53  0
54  0
55  0
56  0
57  0
58  0
59  0
60  0
61  0
62  0
63  0
64  0
65  0
66  0
67  0
68  0
69  0
70  0
71  0
72  0
73  0
74  0
75  0
76  0
77  0
78  0
79  0
80  0
81  0
82  0
83  0
84  0
85  0
86  0
87  0
88  0
89  0
90  0
91  0
92  0
93  0
94  0
95  0
96  0
97  0
98  0
99  0
100  0
101  0
102  0
103  0
104  0
105  0
106  0
107  0
108  0
109  0
110  0
111  0
112  0
113  0
114  0
115  0
116  0
117  0
118  0
119  0
120  0
121  0
122  0
123  0
124  0
125  0
126  0
127  0
128  0
129  0
130  0
131  0
132  0
133  0
134  0
135  0
136  0
137  0
138  0
139  0
140  0
141  0
142  0
143  0
144  0
145  0
146  0
147  0
148  0
149  0
150  0
151  0
152  0
153  0
154  0
155  0
156  0
157  0
158  0
159  0
160  0
161  0
162  0
163  0
164  0
165  0
166  0
167  0
168  0
169  0
170  0
171  0
172  0
173  0
174  0
175  0
176  0
177  0
178  0
179  45
180  447
181  1134
182  1294
183  1194
184  2422
185  4825
186  5522
187  3754
188  2092
189  1237
190  936
191  813
192  648
193  564
194  514
195  468
196  492
197  472
198  466
199  458
200  410
201  483
202  465
203  460
204  492
205  474
206  485
207  481
208  452
209  450
210  417
211  456
212  444
213  461
214  482
215  450
216  466
217  447
218  478
219  435
220  438
221  456
222  468
223  436
224  417
225  432
226  446
227  432
228  458
229  412
230  446
231  460
232  439
233  448
234  458
235  439
236  437
237  451
238  426
239  448
240  484
241  430
242  436
243  445
244  421
245  440
246  412
247  453
248  443
249  456
250  437
251  448
252  452
253  438
254  429
255  443
256  420
257  434
258  439
259  466
260  465
261  427
262  422
263  396
264  447
265  464
266  451
267  434
268  472
269  414
270  440
271  435
272  428
273  445
274  479
275  403
276  454
277  481
278  463
279  429
280  437
281  441
282  441
283  408
284  463
285  450
286  448
287  432
288  475
289  423
290  436
291  443
292  424
293  417
294  468
295  447
296  465
297  467
298  446
299  415
300  445
301  450
302  428
303  434
304  442
305  455
306  469
307  429
308  442
309  443
310  450
311  466
312  431
313  459
314  477
315  462
316  432
317  454
318  431
319  464
320  468
321  460
322  443
323  462
324  442
325  454
326  443
327  451
328  441
329  431
330  484
331  467
332  449
333  437
334  426
335  457
336  487
337  429
338  456
339  432
340  431
341  437
342  460
343  463
344  418
345  418
346  456
347  469
348  450
349  462
350  458
351  430
352  447
353  450
354  464
355  450
356  458
357  425
358  408
359  462
360  445
361  451
362  450
363  420
364  457
365  443
366  421
367  463
368  438
369  446
370  422
371  436
372  454
373  451
374  497
375  454
376  402
377  442
378  477
379  463
380  449
381  437
382  414
383  421
384  447
385  469
386  441
387  420
388  436
389  435
390  418
391  447
392  447
393  443
394  410
395  421
396  461
397  448
398  421
399  439
400  489
401  447
402  454
403  441
404  444
405  427
406  457
407  408
408  455
409  426
410  434
411  420
412  411
413  474
414  502
415  414
416  394
417  438
418  437
419  416
420  434
421  417
422  440
423  431
424  452
425  445
426  426
427  408
428  407
429  418
430  444
431  445
432  482
433  454
434  452
435  417
436  451
437  457
438  440
439  410
440  437
441  431
442  393
443  465
444  447
445  442
446  456
447  454
448  430
449  436
450  446
451  450
452  444
453  377
454  467
455  449
456  421
457  428
458  467
459  432
460  428
461  408
462  448
463  449
464  396
465  447
466  434
467  428
468  463
469  429
470  429
471  431
472  444
473  431
474  442
475  426
476  435
477  433
478  415
479  433
480  442
481  471
482  473
483  433
484  435
485  417
486  458
487  465
488  414
489  461
490  441
491  460
492  436
493  447
494  451
495  414
496  401
497  453
498  428
499  410
500  442
501  468
502  446
503  407
504  423
505  404
506  439
507  424
508  446
509  442
510  424
511  417
512  449
513  429
514  476
515  444
516  439
517  444
518  419
519  426
520  451
521  463
522  453
523  455
524  406
525  408
526  413
527  460
528  403
529  435
530  440
531  426
532  416
533  444
534  463
535  414
536  429
537  414
538  406
539  463
540  418
541  395
542  402
543  435
544  409
545  479
546  426
547  460
548  429
549  464
550  443
551  427
552  448
553  424
554  440
555  452
556  437
557  458
558  452
559  440
560  432
561  400
562  432
563  459
564  438
565  417
566  424
567  446
568  413
569  429
570  449
571  435
572  405
573  429
574  444
575  427
576  437
577  459
578  409
579  424
580  446
581  432
582  429
583  402
584  457
585  411
586  443
587  383
588  432
589  399
590  412
591  474
592  428
593  442
594  417
595  416
596  409
597  423
598  404
599  416
600  414
601  429
602  468
603  390
604  375
605  428
606  400
607  407
608  411
609  413
610  387
611  407
612  396
613  444
614  423
615  400
616  428
617  423
618  443
619  415
620  400
621  463
622  413
623  469
624  432
625  419
626  431
627  421
628  371
629  383
630  413
631  428
632  426
633  402
634  448
635  399
636  433
637  402
638  387
639  432
640  429
641  387
642  432
643  472
644  412
645  399
646  428
647  429
648  445
649  443
650  428
651  438
652  428
653  434
654  415
655  420
656  400
657  403
658  386
659  401
660  447
661  449
662  403
663  404
664  400
665  411
666  439
667  392
668  443
669  403
670  425
671  429
672  421
673  419
674  407
675  457
676  411
677  419
678  375
679  423
680  391
681  435
682  422
683  401
684  412
685  437
686  429
687  391
688  440
689  368
690  403
691  413
692  418
693  421
694  416
695  390
696  428
697  407
698  426
699  448
700  372
701  427
702  418
703  412
704  416
705  426
706  396
707  436
708  431
709  428
710  393
711  442
712  415
713  419
714  388
715  473
716  383
717  405
718  445
719  422
720  402
721  364
722  411
723  413
724  408
725  425
726  373
727  440
728  442
729  433
730  426
731  435
732  427
733  424
734  430
735  433
736  420
737  411
738  413
739  421
740  427
741  429
742  442
743  468
744  414
745  444
746  449
747  443
748  392
749  453
750  412
751  412
752  447
753  419
754  404
755  413
756  429
757  437
758  444
759  421
760  392
761  432
762  398
763  391
764  437
765  418
766  409
767  404
768  401
769  423
770  394
771  441
772  396
773  420
774  407
775  428
776  409
777  419
778  440
779  429
780  418
781  426
782  438
783  406
784  395
785  424
786  398
787  425
788  383
789  450
790  448
791  435
792  436
793  435
794  406
795  421
796  410
797  437
798  451
799  424
800  399
801  410
802  369
803  374
804  419
805  416
806  371
807  418
808  418
809  442
810  417
811  463
812  430
813  414
814  435
815  409
816  424
817  430
818  396
819  427
820  411
821  454
822  415
823  448
824  420
825  424
826  428
827  417
828  405
829  430
830  437
831  443
832  417
833  447
834  413
835  422
836  417
837  402
838  425
839  414
840  393
841  444
842  420
843  415
844  420
845  406
846  437
847  442
848  432
849  438
850  388
851  396
852  412
853  385
854  419
855  411
856  399
857  439
858  388
859  463
860  442
861  429
862  446
863  421
864  421
865  440
866  405
867  414
868  438
869  446
870  418
871  453
872  402
873  419
874  438
875  422
876  401
877  428
878  414
879  431
880  448
881  397
882  388
883  438
884  434
885  371
886  409
887  413
888  409
889  431
890  452
891  421
892  406
893  438
894  447
895  390
896  451
897  441
898  430
899  451
900  423
901  448
902  429
903  393
904  422
905  428
906  394
907  440
908  421
909  452
910  447
911  447
912  451
913  438
914  422
915  444
916  409
917  396
918  403
919  404
920  419
921  428
922  396
923  428
924  453
925  426
926  438
927  425
928  440
929  427
930  457
931  453
932  412
933  397
934  425
935  440
936  432
937  395
938  451
939  420
940  412
941  437
942  422
943  404
944  389
945  438
946  438
947  427
948  434
949  422
950  430
951  367
952  448
953  393
954  399
955  425
956  431
957  449
958  391
959  471
960  383
961  439
962  450
963  403
964  442
965  463
966  463
967  448
968  409
969  390
970  418
971  443
972  415
973  445
974  436
975  454
976  417
977  431
978  435
979  451
980  455
981  447
982  397
983  463
984  450
985  387
986  446
987  444
988  439
989  402
990  451
991  416
992  445
993  434
994  439
995  436
996  444
997  393
998  450
999  434
1000  412
1001  423
1002  441
1003  434
1004  398
1005  407
1006  424
1007  430
1008  400
1009  459
1010  439
1011  421
1012  429
1013  453
1014  451
1015  405
1016  470
1017  410
1018  429
1019  434
1020  420
1021  428
1022  412
1023  416
1024  426
1025  412
1026  416
1027  435
1028  447
1029  426
1030  427
1031  423
1032  400
1033  437
1034  423
1035  417
1036  435
1037  451
1038  466
1039  443
1040  431
1041  457
1042  427
1043  431
1044  401
1045  433
1046  437
1047  431
1048  425
1049  421
1050  400
1051  445
1052  423
1053  437
1054  436
1055  432
1056  448
1057  439
1058  429
1059  441
1060  432
1061  419
1062  456
1063  428
1064  415
1065  421
1066  447
1067  454
1068  428
1069  422
1070  430
1071  424
1072  436
1073  414
1074  451
1075  425
1076  424
1077  433
1078  449
1079  446
1080  415
1081  373
1082  427
1083  396
1084  392
1085  424
1086  412
1087  440
1088  423
1089  425
1090  428
1091  447
1092  458
1093  433
1094  448
1095  415
1096  440
1097  454
1098  448
1099  402
1100  408
1101  403
1102  445
1103  429
1104  448
1105  409
1106  392
1107  439
1108  407
1109  448
1110  455
1111  464
1112  395
1113  413
1114  448
1115  463
1116  479
1117  426
1118  428
1119  475
1120  408
1121  442
1122  437
1123  463
1124  446
1125  422
1126  421
1127  431
1128  401
1129  434
1130  424
1131  369
1132  431
1133  434
1134  420
1135  394
1136  453
1137  433
1138  433
1139  418
1140  457
1141  460
1142  422
1143  406
1144  436
1145  393
1146  411
1147  430
1148  432
1149  414
1150  395
1151  431
1152  433
1153  404
1154  394
1155  432
1156  422
1157  443
1158  415
1159  406
1160  421
1161  396
1162  430
1163  437
1164  421
1165  414
1166  422
1167  423
1168  412
1169  392
1170  417
1171  416
1172  404
1173  434
1174  421
1175  403
1176  443
1177  427
1178  374
1179  415
1180  392
1181  391
1182  432
1183  418
1184  416
1185  394
1186  418
1187  434
1188  442
1189  408
1190  415
1191  415
1192  473
1193  400
1194  423
1195  438
1196  425
1197  453
1198  419
1199  434
1200  396
1201  409
1202  424
1203  441
1204  432
1205  438
1206  423
1207  402
1208  428
1209  416
1210  437
1211  382
1212  394
1213  441
1214  399
1215  412
1216  424
1217  398
1218  435
1219  440
1220  385
1221  380
1222  450
1223  405
1224  414
1225  419
1226  374
1227  403
1228  407
1229  414
1230  424
1231  412
1232  408
1233  386
1234  434
1235  413
1236  405
1237  429
1238  399
1239  415
1240  408
1241  407
1242  436
1243  414
1244  387
1245  435
1246  393
1247  411
1248  394
1249  368
1250  416
1251  393
1252  362
1253  408
1254  403
1255  421
1256  428
1257  414
1258  367
1259  405
1260  437
1261  423
1262  404
1263  386
1264  407
1265  398
1266  443
1267  387
1268  401
1269  400
1270  416
1271  386
1272  364
1273  441
1274  387
1275  417
1276  420
1277  389
1278  415
1279  406
1280  398
1281  416
1282  371
1283  420
1284  428
1285  397
1286  405
1287  457
1288  433
1289  386
1290  396
1291  391
1292  415
1293  366
1294  387
1295  448
1296  386
1297  400
1298  399
1299  405
1300  435
1301  402
1302  393
1303  431
1304  391
1305  373
1306  427
1307  395
1308  390
1309  367
1310  396
1311  407
1312  430
1313  370
1314  390
1315  424
1316  406
1317  385
1318  371
1319  417
1320  415
1321  394
1322  392
1323  379
1324  383
1325  414
1326  379
1327  389
1328  370
1329  387
1330  392
1331  388
1332  381
1333  361
1334  420
1335  395
1336  388
1337  407
1338  354
1339  382
1340  402
1341  383
1342  393
1343  398
1344  383
1345  413
1346  414
1347  359
1348  403
1349  404
1350  402
1351  382
1352  383
1353  416
1354  335
1355  425
1356  408
1357  415
1358  365
1359  416
1360  359
1361  408
1362  365
1363  389
1364  380
1365  366
1366  426
1367  397
1368  367
1369  377
1370  446
1371  374
1372  385
1373  392
1374  373
1375  358
1376  372
1377  389
1378  362
1379  385
1380  392
1381  386
1382  384
1383  401
1384  408
1385  391
1386  376
1387  437
1388  411
1389  389
1390  431
1391  358
1392  367
1393  383
1394  402
1395  446
1396  371
1397  407
1398  405
1399  385
1400  393
1401  414
1402  386
1403  399
1404  417
1405  412
1406  379
1407  390
1408  405
1409  388
1410  414
1411  423
1412  401
1413  378
1414  382
1415  426
1416  401
1417  385
1418  389
1419  388
1420  394
1421  383
1422  384
1423  392
1424  432
1425  373
1426  389
1427  364
1428  383
1429  403
1430  396
1431  415
1432  403
1433  372
1434  388
1435  375
1436  395
1437  348
1438  357
1439  381
1440  391
1441  423
1442  363
1443  343
1444  404
1445  388
1446  404
1447  388
1448  392
1449  389
1450  363
1451  387
1452  440
1453  391
1454  391
1455  443
1456  379
1457  420
1458  461
1459  420
1460  395
1461  401
1462  385
1463  408
1464  386
1465  410
1466  373
1467  398
1468  373
1469  378
1470  402
1471  365
1472  398
1473  371
1474  413
1475  410
1476  403
1477  409
1478  383
1479  415
1480  401
1481  371
1482  386
1483  376
1484  379
1485  411
1486  406
1487  427
1488  402
1489  364
1490  422
1491  391
1492  389
1493  394
1494  382
1495  363
1496  390
1497  382
1498  381
1499  385
1500  417
1501  407
1502  404
1503  364
1504  423
1505  430
1506  416
1507  390
1508  410
1509  425
1510  404
1511  386
1512  427
1513  418
1514  437
1515  436
1516  376
1517  371
1518  357
1519  406
1520  387
1521  397
1522  379
1523  409
1524  402
1525  403
1526  411
1527  397
1528  412
1529  402
1530  377
1531  421
1532  395
1533  417
1534  420
1535  400
1536  417
1537  439
1538  408
1539  401
1540  397
1541  391
1542  392
1543  404
1544  405
1545  392
1546  402
1547  368
1548  381
1549  395
1550  408
1551  381
1552  407
1553  424
1554  437
1555  379
1556  422
1557  390
1558  428
1559  421
1560  394
1561  401
1562  393
1563  417
1564  412
1565  413
1566  423
1567  435
1568  423
1569  393
1570  402
1571  417
1572  430
1573  416
1574  398
1575  402
1576  413
1577  401
1578  425
1579  436
1580  435
1581  388
1582  410
1583  420
1584  428
1585  406
1586  411
1587  431
1588  391
1589  412
1590  446
1591  399
1592  421
1593  386
1594  412
1595  414
1596  423
1597  412
1598  421
1599  433
1600  375
1601  369
1602  425
1603  438
1604  386
1605  404
1606  415
1607  478
1608  438
1609  427
1610  446
1611  404
1612  414
1613  405
1614  430
1615  420
1616  450
1617  453
1618  392
1619  403
1620  391
1621  383
1622  427
1623  413
1624  422
1625  403
1626  390
1627  445
1628  434
1629  399
1630  406
1631  419
1632  416
1633  386
1634  420
1635  457
1636  433
1637  434
1638  406
1639  412
1640  403
1641  405
1642  416
1643  391
1644  420
1645  391
1646  421
1647  427
1648  455
1649  407
1650  442
1651  443
1652  390
1653  446
1654  422
1655  430
1656  415
1657  428
1658  441
1659  424
1660  418
1661  393
1662  394
1663  414
1664  466
1665  419
1666  449
1667  450
1668  467
1669  418
1670  459
1671  442
1672  413
1673  422
1674  450
1675  428
1676  427
1677  421
1678  420
1679  390
1680  415
1681  439
1682  403
1683  436
1684  406
1685  443
1686  451
1687  452
1688  441
1689  441
1690  418
1691  408
1692  449
1693  434
1694  423
1695  418
1696  424
1697  435
1698  461
1699  410
1700  403
1701  394
1702  432
1703  431
1704  431
1705  416
1706  408
1707  417
1708  429
1709  451
1710  450
1711  407
1712  389
1713  445
1714  403
1715  391
1716  426
1717  427
1718  425
1719  420
1720  417
1721  426
1722  428
1723  418
1724  414
1725  444
1726  399
1727  440
1728  402
1729  405
1730  400
1731  424
1732  418
1733  407
1734  425
1735  432
1736  418
1737  398
1738  383
1739  460
1740  417
1741  428
1742  442
1743  428
1744  426
1745  435
1746  443
1747  450
1748  420
1749  427
1750  419
1751  405
1752  429
1753  437
1754  442
1755  443
1756  419
1757  428
1758  433
1759  435
1760  403
1761  420
1762  433
1763  392
1764  423
1765  454
1766  425
1767  409
1768  416
1769  422
1770  462
1771  430
1772  438
1773  456
1774  421
1775  401
1776  409
1777  430
1778  426
1779  415
1780  402
1781  428
1782  455
1783  473
1784  410
1785  458
1786  393
1787  467
1788  432
1789  444
1790  447
1791  441
1792  451
1793  439
1794  427
1795  433
1796  466
1797  460
1798  418
1799  443
1800  468
1801  416
1802  411
1803  436
1804  426
1805  411
1806  457
1807  415
1808  434
1809  443
1810  414
1811  420
1812  428
1813  408
1814  475
1815  444
1816  405
1817  399
1818  453
1819  394
1820  448
1821  431
1822  423
1823  415
1824  387
1825  455
1826  450
1827  461
1828  450
1829  426
1830  394
1831  454
1832  400
1833  409
1834  428
1835  448
1836  424
1837  440
1838  420
1839  401
1840  456
1841  469
1842  459
1843  410
1844  426
1845  395
1846  417
1847  471
1848  405
1849  422
1850  435
1851  424
1852  377
1853  439
1854  435
1855  467
1856  446
1857  419
1858  445
1859  457
1860  433
1861  437
1862  426
1863  425
1864  429
1865  407
1866  435
1867  408
1868  430
1869  431
1870  420
1871  416
1872  461
1873  418
1874  439
1875  435
1876  476
1877  445
1878  391
1879  438
1880  467
1881  454
1882  446
1883  476
1884  424
1885  475
1886  425
1887  419
1888  424
1889  420
1890  394
1891  442
1892  428
1893  470
1894  446
1895  430
1896  433
1897  431
1898  409
1899  409
1900  407
1901  432
1902  405
1903  474
1904  446
1905  414
1906  465
1907  394
1908  439
1909  400
1910  431
1911  457
1912  439
1913  476
1914  451
1915  432
1916  463
1917  401
1918  425
1919  415
1920  441
1921  445
1922  407
1923  449
1924  460
1925  399
1926  447
1927  463
1928  400
1929  434
1930  417
1931  425
1932  402
1933  446
1934  446
1935  450
1936  433
1937  436
1938  403
1939  420
1940  448
1941  455
1942  390
1943  434
1944  410
1945  436
1946  416
1947  393
1948  455
1949  435
1950  404
1951  387
1952  414
1953  408
1954  435
1955  424
1956  444
1957  459
1958  466
1959  444
1960  425
1961  413
1962  434
1963  428
1964  425
1965  451
1966  439
1967  474
1968  433
1969  426
1970  428
1971  408
1972  401
1973  399
1974  424
1975  445
1976  402
1977  397
1978  423
1979  395
1980  427
1981  421
1982  415
1983  437
1984  434
1985  413
1986  401
1987  451
1988  415
1989  446
1990  403
1991  406
1992  421
1993  435
1994  419
1995  410
1996  410
1997  403
1998  414
1999  412
2000  427
2001  392
2002  436
2003  391
2004  422
2005  418
2006  432
2007  454
2008  393
2009  438
2010  424
2011  421
2012  421
2013  407
2014  409
2015  424
2016  439
2017  395
2018  436
2019  426
2020  428
2021  428
2022  393
2023  424
2024  418
2025  405
2026  408
2027  443
2028  453
2029  418
2030  423
2031  448
2032  458
2033  401
2034  412
2035  417
2036  424
2037  399
2038  437
2039  411
2040  426
2041  396
2042  421
2043  426
2044  405
2045  453
2046  418
2047  423
2048  397
2049  387
2050  355
2051  390
2052  458
2053  412
2054  381
2055  385
2056  446
2057  401
2058  425
2059  384
2060  408
2061  425
2062  441
2063  403
2064  415
2065  434
2066  462
2067  412
2068  384
2069  394
2070  390
2071  373
2072  420
2073  370
2074  419
2075  384
2076  403
2077  383
2078  434
2079  422
2080  396
2081  376
2082  426
2083  384
2084  413
2085  382
2086  445
2087  401
2088  434
2089  347
2090  393
2091  389
2092  398
2093  430
2094  408
2095  391
2096  435
2097  436
2098  381
2099  409
2100  417
2101  372
2102  402
2103  409
2104  402
2105  362
2106  369
2107  419
2108  427
2109  405
2110  374
2111  417
2112  387
2113  389
2114  407
2115  362
2116  432
2117  427
2118  404
2119  381
2120  393
2121  411
2122  426
2123  408
2124  413
2125  387
2126  395
2127  388
2128  385
2129  373
2130  413
2131  399
2132  408
2133  396
2134  395
2135  412
2136  437
2137  386
2138  380
2139  419
2140  390
2141  388
2142  412
2143  384
2144  368
2145  387
2146  425
2147  411
2148  400
2149  426
2150  384
2151  405
2152  362
2153  446
2154  376
2155  378
2156  371
2157  386
2158  392
2159  403
2160  382
2161  405
2162  394
2163  375
2164  409
2165  406
2166  385
2167  405
2168  419
2169  382
2170  406
2171  376
2172  380
2173  391
2174  389
2175  406
2176  392
2177  418
2178  417
2179  424
2180  407
2181  423
2182  362
2183  389
2184  383
2185  417
2186  410
2187  367
2188  389
2189  395
2190  378
2191  389
2192  379
2193  409
2194  397
2195  407
2196  415
2197  394
2198  396
2199  408
2200  376
2201  399
2202  419
2203  411
2204  411
2205  385
2206  420
2207  404
2208  379
2209  402
2210  395
2211  399
2212  410
2213  374
2214  358
2215  390
2216  395
2217  367
2218  415
2219  396
2220  412
2221  366
2222  401
2223  390
2224  368
2225  366
2226  385
2227  415
2228  375
2229  363
2230  362
2231  409
2232  399
2233  370
2234  395
2235  376
2236  424
2237  398
2238  395
2239  420
2240  375
2241  393
2242  387
2243  387
2244  429
2245  387
2246  397
2247  389
2248  391
2249  374
2250  366
2251  365
2252  379
2253  384
2254  396
2255  402
2256  365
2257  432
2258  364
2259  393
2260  364
2261  374
2262  394
2263  409
2264  403
2265  394
2266  385
2267  360
2268  394
2269  399
2270  373
2271  360
2272  376
2273  412
2274  416
2275  390
2276  370
2277  407
2278  376
2279  379
2280  385
2281  373
2282  378
2283  429
2284  338
2285  390
2286  399
2287  395
2288  385
2289  403
2290  374
2291  407
2292  374
2293  375
2294  381
2295  376
2296  402
2297  420
2298  383
2299  403
2300  375
2301  392
2302  381
2303  413
2304  419
2305  426
2306  381
2307  374
2308  390
2309  355
2310  392
2311  407
2312  353
2313  383
2314  400
2315  405
2316  388
2317  404
2318  377
2319  397
2320  372
2321  370
2322  400
2323  417
2324  400
2325  390
2326  401
2327  393
2328  395
2329  392
2330  394
2331  422
2332  418
2333  393
2334  385
2335  404
2336  355
2337  417
2338  420
2339  396
2340  420
2341  395
2342  371
2343  408
2344  394
2345  426
2346  408
2347  430
2348  425
2349  374
2350  385
2351  404
2352  379
2353  389
2354  395
2355  366
2356  381
2357  384
2358  382
2359  374
2360  398
2361  400
2362  402
2363  389
2364  401
2365  379
2366  378
2367  333
2368  418
2369  430
2370  391
2371  427
2372  406
2373  410
2374  396
2375  393
2376  405
2377  400
2378  403
2379  382
2380  370
2381  382
2382  375
2383  395
2384  412
2385  387
2386  427
2387  416
2388  400
2389  385
2390  416
2391  372
2392  403
2393  429
2394  398
2395  409
2396  380
2397  409
2398  399
2399  402
2400  414
2401  382
2402  433
2403  394
2404  379
2405  448
2406  394
2407  437
2408  407
2409  387
2410  423
2411  378
2412  371
2413  411
2414  394
2415  431
2416  398
2417  410
2418  431
2419  393
2420  447
2421  396
2422  437
2423  395
2424  444
2425  395
2426  454
2427  383
2428  426
2429  407
2430  418
2431  437
2432  385
2433  435
2434  419
2435  404
2436  403
2437  403
2438  421
2439  440
2440  403
2441  391
2442  405
2443  419
2444  422
2445  416
2446  400
2447  392
2448  422
2449  392
2450  390
2451  414
2452  431
2453  410
2454  433
2455  450
2456  401
2457  408
2458  400
2459  384
2460  449
2461  441
2462  421
2463  428
2464  422
2465  452
2466  396
2467  420
2468  410
2469  379
2470  468
2471  397
2472  409
2473  425
2474  428
2475  453
2476  405
2477  429
2478  413
2479  439
2480  462
2481  376
2482  415
2483  450
2484  391
2485  427
2486  387
2487  404
2488  433
2489  449
2490  422
2491  384
2492  420
2493  411
2494  418
2495  391
2496  426
2497  393
2498  432
2499  413
2500  432
2501  412
2502  419
2503  432
2504  442
2505  441
2506  429
2507  416
2508  416
2509  438
2510  400
2511  442
2512  390
2513  423
2514  404
2515  478
2516  456
2517  422
2518  417
2519  441
2520  431
2521  424
2522  434
2523  422
2524  442
2525  409
2526  421
2527  419
2528  427
2529  412
2530  400
2531  458
2532  439
2533  376
2534  424
2535  430
2536  428
2537  432
2538  467
2539  463
2540  392
2541  398
2542  408
2543  437
2544  386
2545  436
2546  411
2547  412
2548  418
2549  373
2550  419
2551  416
2552  406
2553  395
2554  464
2555  400
2556  441
2557  451
2558  421
2559  446
2560  461
2561  421
2562  448
2563  403
2564  417
2565  408
2566  437
2567  423
2568  451
2569  380
2570  424
2571  473
2572  437
2573  408
2574  413
2575  448
2576  394
2577  441
2578  457
2579  481
2580  376
2581  450
2582  420
2583  399
2584  435
2585  457
2586  416
2587  463
2588  428
2589  415
2590  436
2591  430
2592  400
2593  407
2594  446
2595  412
2596  403
2597  408
2598  409
2599  452
2600  422
2601  470
2602  413
2603  426
2604  401
2605  462
2606  425
2607  422
2608  419
2609  437
2610  428
2611  430
2612  427
2613  419
2614  439
2615  428
2616  411
2617  449
2618  415
2619  430
2620  401
2621  424
2622  421
2623  437
2624  416
2625  417
2626  435
2627  412
2628  457
2629  428
2630  416
2631  420
2632  423
2633  432
2634  448
2635  425
2636  440
2637  465
2638  434
2639  426
2640  411
2641  441
2642  450
2643  427
2644  416
2645  457
2646  392
2647  420
2648  439
2649  444
2650  420
2651  409
2652  409
2653  464
2654  427
2655  465
2656  405
2657  428
2658  413
2659  408
2660  433
2661  421
2662  408
2663  410
2664  435
2665  418
2666  423
2667  411
2668  438
2669  426
2670  402
2671  406
2672  463
2673  404
2674  438
2675  446
2676  446
2677  411
2678  398
2679  385
2680  457
2681  413
2682  452
2683  459
2684  472
2685  438
2686  420
2687  429
2688  432
2689  425
2690  458
2691  420
2692  429
2693  409
2694  435
2695  410
2696  436
2697  397
2698  451
2699  441
2700  425
2701  449
2702  392
2703  430
2704  438
2705  451
2706  441
2707  457
2708  423
2709  416
2710  438
2711  419
2712  397
2713  409
2714  390
2715  463
2716  507
2717  421
2718  440
2719  412
2720  447
2721  465
2722  424
2723  446
2724  457
2725  445
2726  445
2727  447
2728  431
2729  405
2730  461
2731  417
2732  440
2733  425
2734  448
2735  455
2736  441
2737  451
2738  412
2739  456
2740  398
2741  419
2742  423
2743  468
2744  426
2745  431
2746  409
2747  449
2748  413
2749  415
2750  434
2751  438
2752  409
2753  443
2754  386
2755  425
2756  403
2757  423
2758  437
2759  415
2760  459
2761  433
2762  439
2763  424
2764  456
2765  433
2766  422
2767  428
2768  474
2769  425
2770  451
2771  411
2772  426
2773  391
2774  421
2775  454
2776  445
2777  448
2778  417
2779  405
2780  410
2781  432
2782  407
2783  405
2784  398
2785  442
2786  418
2787  405
2788  419
2789  425
2790  421
2791  408
2792  418
2793  432
2794  418
2795  418
2796  438
2797  470
2798  402
2799  402
2800  453
2801  389
2802  422
2803  452
2804  447
2805  395
2806  434
2807  437
2808  445
2809  417
2810  430
2811  420
2812  422
2813  406
2814  424
2815  419
2816  418
2817  420
2818  455
2819  384
2820  451
2821  420
2822  436
2823  444
2824  398
2825  420
2826  422
2827  421
2828  451
2829  426
2830  425
2831  423
2832  450
2833  428
2834  419
2835  415
2836  414
2837  414
2838  403
2839  408
2840  408
2841  388
2842  387
2843  437
2844  366
2845  397
2846  430
2847  363
2848  428
2849  429
2850  401
2851  382
2852  393
2853  440
2854  442
2855  438
2856  381
2857  413
2858  388
2859  409
2860  399
2861  451
2862  387
2863  389
2864  407
2865  410
2866  421
2867  388
2868  410
2869  407
2870  409
2871  437
2872  396
2873  419
2874  444
2875  411
2876  377
2877  428
2878  420
2879  409
2880  431
2881  427
2882  396
2883  398
2884  406
2885  395
2886  407
2887  452
2888  405
2889  389
2890  421
2891  420
2892  425
2893  436
2894  448
2895  411
2896  378
2897  381
2898  438
2899  392
2900  423
2901  355
2902  400
2903  412
2904  460
2905  454
2906  401
2907  392
2908  374
2909  401
2910  397
2911  435
2912  410
2913  425
2914  402
2915  391
2916  379
2917  466
2918  377
2919  406
2920  417
2921  424
2922  373
2923  404
2924  403
2925  388
2926  386
2927  401
2928  387
2929  393
2930  426
2931  394
2932  370
2933  383
2934  414
2935  379
2936  376
2937  394
2938  410
2939  379
2940  404
2941  435
2942  384
2943  425
2944  409
2945  412
2946  380
2947  394
2948  389
2949  420
2950  393
2951  344
2952  404
2953  424
2954  438
2955  384
2956  401
2957  387
2958  368
2959  375
2960  397
2961  382
2962  432
2963  402
2964  394
2965  416
2966  411
2967  395
2968  371
2969  379
2970  411
2971  432
2972  399
2973  363
2974  408
2975  425
2976  417
2977  384
2978  388
2979  379
2980  430
2981  376
2982  373
2983  425
2984  418
2985  404
2986  430
2987  382
2988  396
2989  409
2990  391
2991  390
2992  376
2993  380
2994  416
2995  390
2996  422
2997  389
2998  405
2999  395
3000  374
3001  418
3002  381
3003  390
3004  404
3005  403
3006  387
3007  357
3008  372
3009  373
3010  414
3011  383
3012  405
3013  400
3014  380
3015  406
3016  354
3017  389
3018  424
3019  393
3020  424
3021  320
3022  382
3023  405
3024  369
3025  430
3026  409
3027  372
3028  419
3029  382
3030  393
3031  372
3032  360
3033  402
3034  407
3035  419
3036  379
3037  411
3038  414
3039  428
3040  399
3041  401
3042  437
3043  395
3044  376
3045  384
3046  392
3047  375
3048  392
3049  365
3050  397
3051  380
3052  390
3053  417
3054  394
3055  436
3056  348
3057  410
3058  384
3059  385
3060  411
3061  389
3062  395
3063  383
3064  379
3065  380
3066  376
3067  370
3068  414
3069  415
3070  386
3071  394
3072  372
3073  386
3074  418
3075  386
3076  375
3077  436
3078  378
3079  373
3080  431
3081  386
3082  416
3083  374
3084  418
3085  418
3086  387
3087  361
3088  359
3089  363
3090  399
3091  361
3092  403
3093  393
3094  397
3095  401
3096  405
3097  364
3098  395
3099  374
3100  394
3101  406
3102  426
3103  377
3104  420
3105  401
3106  436
3107  363
3108  394
3109  418
3110  410
3111  377
3112  416
3113  386
3114  368
3115  417
3116  370
3117  357
3118  358
3119  417
3120  362
3121  395
3122  366
3123  376
3124  397
3125  394
3126  383
3127  420
3128  407
3129  391
3130  410
3131  372
3132  408
3133  396
3134  394
3135  417
3136  445
3137  365
3138  359
3139  416
3140  400
3141  400
3142  399
3143  385
3144  394
3145  407
3146  362
3147  447
3148  379
3149  367
3150  392
3151  398
3152  419
3153  385
3154  387
3155  352
3156  423
3157  380
3158  389
3159  399
3160  406
3161  399
3162  416
3163  403
3164  385
3165  399
3166  375
3167  409
3168  381
3169  382
3170  384
3171  415
3172  365
3173  386
3174  374
3175  395
3176  403
3177  381
3178  404
3179  399
3180  372
3181  436
3182  386
3183  384
3184  408
3185  402
3186  386
3187  372
3188  361
3189  413
3190  375
3191  419
3192  363
3193  371
3194  415
3195  421
3196  394
3197  384
3198  441
3199  414
3200  411
3201  392
3202  376
3203  406
3204  421
3205  370
3206  379
3207  424
3208  388
3209  409
3210  405
3211  388
3212  420
3213  368
3214  424
3215  407
3216  373
3217  384
3218  398
3219  388
3220  408
3221  392
3222  432
3223  396
3224  409
3225  400
3226  413
3227  371
3228  388
3229  395
3230  418
3231  384
3232  384
3233  427
3234  389
3235  369
3236  415
3237  390
3238  423
3239  428
3240  375
3241  386
3242  363
3243  391
3244  414
3245  404
3246  416
3247  383
3248  432
3249  401
3250  387
3251  378
3252  401
3253  423
3254  426
3255  380
3256  421
3257  416
3258  395
3259  365
3260  371
3261  384
3262  449
3263  423
3264  381
3265  453
3266  450
3267  394
3268  380
3269  398
3270  410
3271  402
3272  457
3273  431
3274  379
3275  432
3276  443
3277  420
3278  398
3279  395
3280  434
3281  426
3282  379
3283  433
3284  400
3285  386
3286  422
3287  398
3288  407
3289  371
3290  430
3291  419
3292  437
3293  408
3294  424
3295  427
3296  368
3297  422
3298  412
3299  417
3300  466
3301  409
3302  405
3303  388
3304  449
3305  400
3306  450
3307  444
3308  425
3309  416
3310  442
3311  426
3312  428
3313  407
3314  403
3315  434
3316  424
3317  455
3318  429
3319  421
3320  408
3321  439
3322  430
3323  441
3324  427
3325  433
3326  423
3327  440
3328  428
3329  413
3330  423
3331  434
3332  384
3333  436
3334  417
3335  381
3336  435
3337  431
3338  402
3339  409
3340  426
3341  429
3342  401
3343  430
3344  384
3345  451
3346  460
3347  431
3348  423
3349  457
3350  421
3351  405
3352  403
3353  435
3354  456
3355  438
3356  401
3357  425
3358  446
3359  408
3360  408
3361  404
3362  434
3363  389
3364  427
3365  444
3366  417
3367  455
3368  468
3369  445
3370  404
3371  449
3372  421
3373  440
3374  407
3375  403
3376  415
3377  437
3378  464
3379  419
3380  443
3381  465
3382  431
3383  415
3384  415
3385  386
3386  433
3387  431
3388  435
3389  454
3390  442
3391  419
3392  453
3393  455
3394  432
3395  418
3396  464
3397  417
3398  385
3399  403
3400  439
3401  421
3402  426
3403  428
3404  417
3405  485
3406  446
3407  445
3408  459
3409  436
3410  461
3411  458
3412  448
3413  414
3414  451
3415  408
3416  431
3417  427
3418  436
3419  424
3420  400
3421  428
3422  453
3423  419
3424  428
3425  417
3426  400
3427  423
3428  445
3429  484
3430  439
3431  457
3432  401
3433  469
3434  435
3435  441
3436  445
3437  466
3438  446
3439  413
3440  431
3441  430
3442  450
3443  441
3444  431
3445  469
3446  426
3447  431
3448  451
3449  428
3450  458
3451  433
3452  452
3453  442
3454  425
3455  493
3456  430
3457  446
3458  466
3459  437
3460  458
3461  421
3462  423
3463  421
3464  420
3465  424
3466  437
3467  422
3468  436
3469  446
3470  442
3471  409
3472  409
3473  379
3474  379
3475  343
3476  375
3477  333
3478  355
3479  329
3480  270
3481  255
3482  262
3483  209
3484  145
3485  80
3486  38
3487  15
3488  4
3489  1
3490  0
3491  0
3492  3
3493  1
3494  0
3495  1
3496  0
3497  0
3498  0
3499  0
3500  0
3501  0
3502  0
3503  0
3504  0
3505  0
3506  0
3507  0
3508  0
3509  0
3510  0
3511  0
3512  0
3513  0
3514  0
3515  0
3516  0
3517  0
3518  0
3519  0
3520  0
3521  0
3522  0
3523  0
3524  0
3525  0
3526  0
3527  0
3528  0
3529  0
3530  0
3531  0
3532  0
3533  0
3534  0
3535  0
3536  0
3537  0
3538  0
3539  0
3540  0
3541  0
3542  0
3543  0
3544  0
3545  0
3546  0
3547  0
3548  0
3549  0
3550  0
3551  0
3552  0
3553  0
3554  0
3555  0
3556  0
3557  0
3558  0
3559  0
3560  0
3561  0
3562  0
3563  0
3564  0
3565  0
3566  0
3567  0
3568  0
3569  0
3570  0
3571  0
3572  0
3573  0
3574  0
3575  0
3576  0
3577  0
3578  0
3579  0
3580  0
3581  0
3582  0
3583  0
3584  0
3585  0
3586  0
3587  0
3588  0
3589  0
3590  0
3591  0
3592  0
3593  0
3594  0
3595  0
3596  0
3597  0
3598  0
3599  0
3600  0
3601  0
3602  0
3603  0
3604  0
3605  0
3606  0
3607  0
3608  0
3609  0
3610  0
3611  0
3612  0
3613  0
3614  0
3615  0
3616  0
3617  0
3618  0
3619  0
3620  0
3621  0
3622  0
3623  0
3624  0
3625  0
3626  0
3627  0
3628  0
3629  0
3630  0
3631  0
3632  0
3633  0
3634  0
3635  0
3636  0
3637  0
3638  0
3639  0
3640  0
3641  0
3642  0
3643  0
3644  0
3645  0
3646  0
3647  0
3648  0
3649  0
3650  0
3651  0
3652  0
3653  0
3654  0
3655  0
3656  0
3657  0
3658  0
3659  0
3660  0
3661  0
3662  0
3663  0
3664  0
3665  0
3666  0
3667  0
3668  0
3669  0
3670  0
3671  0
3672  0
3673  0
3674  0
3675  0
3676  0
3677  0
3678  0
3679  0
3680  0
3681  0
3682  0
3683  0
3684  0
3685  0
3686  0
3687  0
3688  0
3689  0
3690  0
3691  0
3692  0
3693  0
3694  0
3695  0
3696  0
3697  0
3698  0
3699  0
3700  0
3701  0
3702  0
3703  0
3704  0
3705  0
3706  0
3707  0
3708  0
3709  0
3710  0
3711  0
3712  0
3713  0
3714  0
3715  0
3716  0
3717  0
3718  0
3719  0
3720  0
3721  0
3722  0
3723  0
3724  0
3725  0
3726  0
3727  0
3728  0
3729  0
3730  0
3731  0
3732  0
3733  0
3734  0
3735  0
3736  0
3737  0
3738  0
3739  0
3740  0
3741  0
3742  0
3743  0
3744  0
3745  0
3746  0
3747  0
3748  0
3749  0
3750  0
3751  0
3752  0
3753  0
3754  0
3755  0
3756  0
3757  0
3758  0
3759  0
3760  0
3761  0
3762  0
3763  0
3764  0
3765  0
3766  0
3767  0
3768  0
3769  0
3770  0
3771  0
3772  0
3773  0
3774  0
3775  0
3776  0
3777  0
3778  0
3779  0
3780  0
3781  0
3782  0
3783  0
3784  0
3785  0
3786  0
3787  0
3788  0
3789  0
3790  0
3791  0
3792  0
3793  0
3794  0
3795  0
3796  0
3797  0
3798  0
3799  0
3800  0
3801  0
3802  0
3803  0
3804  0
3805  0
3806  0
3807  0
3808  0
3809  0
3810  0
3811  0
3812  0
3813  0
3814  0
3815  0
3816  0
3817  0
3818  0
3819  0
3820  0
3821  0
3822  0
3823  0
3824  0
3825  0
3826  0
3827  0
3828  0
3829  0
3830  0
3831  0
3832  0
3833  0
3834  0
3835  0
3836  0
3837  0
3838  0
3839  0
3840  0
3841  0
3842  0
3843  0
3844  0
3845  0
3846  0
3847  0
3848  0
3849  0
3850  0
3851  0
3852  0
3853  0
3854  0
3855  0
3856  0
3857  0
3858  0
3859  0
3860  0
3861  0
3862  0
3863  0
3864  0
3865  0
3866  0
3867  0
3868  0
3869  0
3870  0
3871  0
3872  0
3873  0
3874  0
3875  0
3876  0
3877  0
3878  0
3879  0
3880  0
3881  0
3882  0
3883  0
3884  0
3885  0
3886  0
3887  0
3888  0
3889  0
3890  0
3891  0
3892  0
3893  0
3894  0
3895  0
3896  0
3897  0
3898  0
3899  0
3900  0
3901  0
3902  0
3903  0
3904  0
3905  0
3906  0
3907  0
3908  0
3909  0
3910  0
3911  0
3912  0
3913  0
3914  0
3915  0
3916  0
3917  0
3918  0
3919  0
3920  0
3921  0
3922  0
3923  0
3924  0
3925  0
3926  0
3927  0
3928  0
3929  0
3930  0
3931  0
3932  0
3933  0
3934  0
3935  0
3936  0
3937  0
3938  0
3939  0
3940  0
3941  0
3942  0
3943  0
3944  0
3945  0
3946  0
3947  0
3948  0
3949  0
3950  0
3951  0
3952  0
3953  0
3954  0
3955  0
3956  0
3957  0
3958  0
3959  0
3960  0
3961  0
3962  0
3963  0
3964  0
3965  0
3966  0
3967  0
3968  0
3969  0
3970  0
3971  0
3972  0
3973  0
3974  0
3975  0
3976  0
3977  0
3978  0
3979  0
3980  0
3981  0
3982  0
3983  0
3984  0
3985  0
3986  0
3987  0
3988  0
3989  0
3990  0
3991  0
3992  0
3993  0
3994  0
3995  0
3996  0
3997  0
3998  0
3999  0
4000  0
4001  0
4002  0
4003  0
4004  0
4005  0
4006  0
4007  0
4008  0
4009  0
4010  0
4011  0
4012  0
4013  0
4014  0
4015  0
4016  0
4017  0
4018  0
4019  0
4020  0
4021  0
4022  0
4023  0
4024  0
4025  0
4026  0
4027  0
4028  0
4029  0
4030  0
4031  0
4032  0
4033  0
4034  0
4035  0
4036  0
4037  0
4038  0
4039  0
4040  0
4041  0
4042  0
4043  0
4044  0
4045  0
4046  0
4047  0
4048  0
4049  0
4050  0
4051  0
4052  0
4053  0
4054  0
4055  0
4056  0
4057  0
4058  0
4059  0
4060  0
4061  0
4062  0
4063  0
4064  0
4065  0
4066  0
4067  0
4068  0
4069  0
4070  0
4071  0
4072  0
4073  0
4074  0
4075  0
4076  0
4077  0
4078  0
4079  0
4080  0
4081  0
4082  0
4083  0
4084  0
4085  0
4086  0
4087  0
4088  0
4089  0
4090  0
4091  0
4092  0
4093  0
4094  0
4095  0
