0  3
1  0
2  1
3  0
4  0
5  1
6  0
7  1
8  1
9  1
10  1
11  2
12  2
13  2
14  7
15  61
16  1309
17  8429
18  21532
19  26873
20  20366
21  12364
22  9459
23  9281
24  9633
25  9590
26  9472
27  9518
28  9581
29  9550
30  9154
31  9100
32  9017
33  9020
34  8862
35  8844
36  8649
37  8703
38  8634
39  8411
40  8002
41  6831
42  4798
43  3369
44  2369
45  1589
46  920
47  486
48  284
49  162
50  104
51  73
52  49
53  29
54  19
55  22
56  16
57  14
58  15
59  8
60  8
61  4
62  6
63  6
64  6
65  1
66  1
67  0
68  2
69  0
70  1
71  1
72  0
73  0
74  1
75  3
76  1
77  0
78  0
79  0
80  0
81  0
82  1
83  0
84  0
85  0
86  1
87  0
88  3
89  1
90  0
91  0
92  0
93  0
94  0
95  0
96  0
97  0
98  0
99  0
100  0
101  0
102  1
103  0
104  1
105  0
106  0
107  0
108  0
109  0
110  0
111  0
112  0
113  0
114  1
115  0
116  0
117  0
118  0
119  0
120  0
121  0
122  1
123  1
124  0
125  0
126  0
127  0
128  0
129  0
130  1
131  0
132  1
133  2
134  0
135  0
136  0
137  0
138  2
139  1
140  0
141  0
142  1
143  1
144  0
145  0
146  1
147  2
148  0
149  0
150  0
151  0
152  0
153  0
154  0
155  0
156  0
157  0
158  0
159  1
160  1
161  1
162  1
163  0
164  0
165  0
166  1
167  0
168  0
169  0
170  0
171  1
172  0
173  1
174  0
175  0
176  0
177  0
178  1
179  20
180  328
181  2230
182  6554
183  10953
184  13115
185  18974
186  34282
187  50076
188  51004
189  38498
190  25371
191  17318
192  13644
193  11181
194  9642
195  8681
196  7981
197  7290
198  7040
199  6555
200  6335
201  6292
202  6045
203  6041
204  5711
205  5769
206  5728
207  5739
208  5584
209  5428
210  5432
211  5517
212  5407
213  5381
214  5385
215  5548
216  5424
217  5310
218  5370
219  5309
220  5366
221  5395
222  5370
223  5315
224  5270
225  5314
226  5230
227  5096
228  5234
229  5253
230  5187
231  5285
232  5185
233  5236
234  5330
235  5168
236  5094
237  5256
238  5258
239  5280
240  5283
241  5361
242  5149
243  5221
244  5121
245  5262
246  5314
247  5179
248  5274
249  5254
250  5198
251  5347
252  5223
253  5128
254  5272
255  5266
256  5233
257  5183
258  5221
259  5238
260  5115
261  5208
262  5168
263  5117
264  5166
265  5169
266  5161
267  5200
268  5258
269  5208
270  5298
271  5226
272  5160
273  5099
274  5256
275  5300
276  5185
277  5318
278  5183
279  5223
280  5117
281  5178
282  5321
283  5152
284  5094
285  5216
286  5196
287  5160
288  5123
289  5363
290  5219
291  5295
292  5110
293  5239
294  5186
295  5204
296  5338
297  5206
298  5197
299  5192
300  5138
301  5212
302  5323
303  5311
304  5218
305  5387
306  5218
307  5274
308  5225
309  5196
310  5083
311  5377
312  5169
313  5199
314  5185
315  5273
316  5208
317  5188
318  5104
319  5124
320  5270
321  5098
322  5227
323  5251
324  5145
325  5351
326  5128
327  5205
328  5295
329  5341
330  5205
331  5170
332  5334
333  5233
334  5335
335  5273
336  5315
337  5242
338  5329
339  5130
340  5324
341  5242
342  5260
343  5141
344  5170
345  5253
346  5206
347  5132
348  5210
349  5194
350  5127
351  5308
352  5115
353  5200
354  5282
355  5160
356  5162
357  5279
358  5268
359  5173
360  5356
361  5244
362  5274
363  5167
364  5111
365  5279
366  5251
367  5185
368  5183
369  5252
370  5298
371  5276
372  5303
373  5254
374  5278
375  5161
376  5275
377  5193
378  5384
379  5445
380  5345
381  5182
382  5155
383  5079
384  5254
385  5274
386  5196
387  5220
388  5259
389  5344
390  5224
391  5193
392  5309
393  5265
394  5187
395  5126
396  5413
397  5241
398  5312
399  5169
400  5230
401  5142
402  5139
403  5145
404  5160
405  5220
406  5123
407  5101
408  5311
409  5289
410  5182
411  5234
412  5166
413  5206
414  5296
415  5256
416  5234
417  5272
418  5264
419  5233
420  5148
421  5264
422  5217
423  5358
424  5340
425  5113
426  5366
427  5104
428  5238
429  5238
430  5360
431  5219
432  5313
433  5295
434  5390
435  5154
436  5211
437  5224
438  5079
439  5201
440  5230
441  5115
442  5295
443  5257
444  5093
445  5175
446  5211
447  5237
448  5240
449  5309
450  5090
451  5333
452  5331
453  5164
454  5349
455  5333
456  5159
457  5234
458  5219
459  5113
460  5341
461  5390
462  5216
463  5261
464  5261
465  5317
466  5203
467  5203
468  5277
469  5255
470  5354
471  5318
472  5214
473  5315
474  5129
475  5350
476  5194
477  5128
478  5280
479  5263
480  5200
481  5187
482  5256
483  5210
484  5158
485  5133
486  5252
487  5221
488  5148
489  5216
490  5275
491  5211
492  5255
493  5155
494  5240
495  5212
496  5101
497  5185
498  5175
499  5242
500  5258
501  5341
502  5152
503  5242
504  5274
505  5284
506  5162
507  5239
508  5252
509  5367
510  5209
511  5377
512  5374
513  5189
514  5261
515  5361
516  5195
517  5157
518  5242
519  5399
520  5161
521  5162
522  5157
523  5281
524  5247
525  5075
526  5237
527  5066
528  5145
529  5176
530  5243
531  5206
532  5123
533  5227
534  5185
535  5118
536  5087
537  5078
538  5268
539  5325
540  5262
541  5322
542  5103
543  5315
544  5159
545  5297
546  5230
547  5212
548  5290
549  5326
550  5282
551  5225
552  5243
553  5221
554  5275
555  5408
556  5299
557  5217
558  5133
559  5314
560  5334
561  5010
562  5146
563  5199
564  5258
565  5254
566  5146
567  5259
568  5197
569  5106
570  5160
571  5104
572  5255
573  5088
574  5239
575  5295
576  5008
577  5201
578  5110
579  5337
580  5221
581  5197
582  5273
583  5154
584  5311
585  5315
586  5200
587  5222
588  5206
589  5261
590  5197
591  5263
592  5133
593  5264
594  5303
595  5347
596  5269
597  5318
598  5235
599  5307
600  5272
601  5247
602  5159
603  5261
604  5272
605  5332
606  5295
607  5169
608  5353
609  5142
610  5182
611  5220
612  5364
613  5364
614  5140
615  5324
616  5192
617  5158
618  5248
619  5261
620  5235
621  5230
622  5047
623  5255
624  5245
625  5210
626  5275
627  5094
628  5405
629  5268
630  5283
631  5199
632  5312
633  5147
634  5360
635  5229
636  5245
637  5252
638  5261
639  5181
640  5258
641  5186
642  5183
643  5179
644  5204
645  5202
646  5248
647  5269
648  5274
649  5206
650  5207
651  5389
652  5284
653  5261
654  5162
655  5272
656  5172
657  5177
658  5243
659  5189
660  5209
661  5183
662  5155
663  5240
664  5167
665  5274
666  5237
667  5366
668  5135
669  5341
670  5334
671  5327
672  5230
673  5214
674  5246
675  5188
676  5227
677  5233
678  5180
679  5458
680  5189
681  5326
682  5399
683  5236
684  5196
685  5259
686  5358
687  5302
688  5298
689  5279
690  5244
691  5284
692  5331
693  5089
694  5089
695  5283
696  5134
697  5239
698  5078
699  5272
700  5267
701  5325
702  5183
703  5239
704  5300
705  5126
706  5228
707  5133
708  5247
709  5171
710  5198
711  5184
712  5175
713  5226
714  5278
715  5134
716  5255
717  5192
718  5095
719  5338
720  5128
721  5259
722  5268
723  5132
724  5102
725  5363
726  5299
727  5206
728  5252
729  5137
730  5253
731  5147
732  5192
733  5234
734  5306
735  5398
736  5201
737  5236
738  5298
739  5266
740  5274
741  5246
742  5135
743  5187
744  5217
745  5230
746  5228
747  5225
748  5327
749  5194
750  5166
751  5229
752  5335
753  5196
754  5210
755  5270
756  5233
757  5222
758  5263
759  5175
760  5294
761  5233
762  5178
763  5228
764  5206
765  5307
766  5202
767  5161
768  5180
769  5283
770  5288
771  5186
772  5252
773  5223
774  5228
775  5432
776  5240
777  5265
778  5267
779  5257
780  5300
781  5265
782  5157
783  5310
784  5164
785  5226
786  5268
787  5176
788  5268
789  5202
790  5308
791  5362
792  5259
793  5235
794  5218
795  5128
796  5268
797  5119
798  5194
799  5243
800  5234
801  5277
802  5363
803  5259
804  5190
805  5275
806  5231
807  5331
808  5125
809  5116
810  5162
811  5296
812  5301
813  5162
814  5266
815  5232
816  5359
817  5214
818  5239
819  5305
820  5258
821  5293
822  5286
823  5106
824  5158
825  5110
826  5171
827  5432
828  5242
829  5267
830  5191
831  5231
832  5242
833  5155
834  5257
835  5187
836  5171
837  5181
838  5226
839  5281
840  5183
841  5225
842  5182
843  5340
844  5244
845  5211
846  5222
847  5293
848  5328
849  5010
850  5370
851  5165
852  5299
853  5298
854  5199
855  5254
856  5151
857  5279
858  5313
859  5212
860  5319
861  5164
862  5216
863  5200
864  5256
865  5099
866  5200
867  5266
868  5129
869  5204
870  5292
871  5279
872  5291
873  5244
874  5023
875  5070
876  5122
877  5219
878  5200
879  5161
880  5202
881  5139
882  5161
883  5264
884  5334
885  5210
886  5265
887  5135
888  5203
889  5153
890  5311
891  5274
892  5174
893  5280
894  5175
895  5269
896  5322
897  5181
898  5273
899  5217
900  5270
901  5278
902  5152
903  5175
904  5215
905  5140
906  5098
907  5297
908  5119
909  5155
910  5228
911  5261
912  5076
913  5114
914  5200
915  5137
916  5181
917  5288
918  5169
919  5175
920  5250
921  5217
922  5196
923  5228
924  5222
925  5352
926  5280
927  5152
928  5239
929  5207
930  5194
931  5106
932  5270
933  5249
934  5348
935  5139
936  5191
937  5137
938  5211
939  5308
940  5256
941  5418
942  5323
943  5209
944  5247
945  5278
946  5177
947  5240
948  5225
949  5256
950  5136
951  5145
952  5018
953  5253
954  5195
955  5220
956  5266
957  5123
958  5304
959  5312
960  5158
961  5228
962  5384
963  5266
964  5075
965  5145
966  5105
967  5229
968  5315
969  5193
970  5215
971  5261
972  5221
973  5203
974  5098
975  5330
976  5096
977  5239
978  5241
979  5283
980  5173
981  5236
982  5166
983  5175
984  5156
985  5248
986  5284
987  5158
988  5332
989  5241
990  5382
991  5184
992  5185
993  5243
994  5158
995  5131
996  5111
997  5214
998  5178
999  5314
1000  5230
1001  5207
1002  5233
1003  5221
1004  5248
1005  5109
1006  5163
1007  5278
1008  5147
1009  5267
1010  5093
1011  5254
1012  5240
1013  5247
1014  5195
1015  5277
1016  5111
1017  5224
1018  5120
1019  5183
1020  5235
1021  5204
1022  5237
1023  5162
1024  5210
1025  5329
1026  5182
1027  5167
1028  5280
1029  5246
1030  5190
1031  5189
1032  5255
1033  5191
1034  5237
1035  5246
1036  5247
1037  5298
1038  5067
1039  5207
1040  5187
1041  5171
1042  5206
1043  5222
1044  5252
1045  5222
1046  5211
1047  5326
1048  5216
1049  5219
1050  5163
1051  5362
1052  5279
1053  5286
1054  5293
1055  5196
1056  5243
1057  5091
1058  5241
1059  5193
1060  5159
1061  5293
1062  5232
1063  5174
1064  5121
1065  5184
1066  5182
1067  5227
1068  5116
1069  5162
1070  5088
1071  5257
1072  5313
1073  5248
1074  5270
1075  5187
1076  5078
1077  5203
1078  5238
1079  5221
1080  5223
1081  5266
1082  5223
1083  5154
1084  5221
1085  5147
1086  5290
1087  5274
1088  5193
1089  5101
1090  5303
1091  5278
1092  5245
1093  5191
1094  5368
1095  5111
1096  5279
1097  5328
1098  5330
1099  5282
1100  5251
1101  5296
1102  5342
1103  5287
1104  5116
1105  5255
1106  5192
1107  5373
1108  5199
1109  5283
1110  5118
1111  5228
1112  5202
1113  5296
1114  5242
1115  5188
1116  5237
1117  5325
1118  5166
1119  5154
1120  5433
1121  5296
1122  5241
1123  5373
1124  5197
1125  5320
1126  5240
1127  5173
1128  5174
1129  5094
1130  5267
1131  5167
1132  5419
1133  5231
1134  5351
1135  5236
1136  5321
1137  5195
1138  5217
1139  5238
1140  5129
1141  5271
1142  5164
1143  5145
1144  5274
1145  5260
1146  5242
1147  5204
1148  5188
1149  5245
1150  5205
1151  5200
1152  5206
1153  5189
1154  5194
1155  5250
1156  5201
1157  5366
1158  5169
1159  5050
1160  5367
1161  5158
1162  5298
1163  5148
1164  5234
1165  5301
1166  5228
1167  5264
1168  5152
1169  5230
1170  5185
1171  5402
1172  5280
1173  5089
1174  5157
1175  5142
1176  5189
1177  5201
1178  5300
1179  5193
1180  5244
1181  5117
1182  5220
1183  4997
1184  5265
1185  5285
1186  5202
1187  5218
1188  5276
1189  5289
1190  5245
1191  5280
1192  5280
1193  5294
1194  5236
1195  5240
1196  5283
1197  5161
1198  5302
1199  5264
1200  5268
1201  5198
1202  5099
1203  5217
1204  5322
1205  5224
1206  5332
1207  5193
1208  5255
1209  5385
1210  5357
1211  5157
1212  5264
1213  5280
1214  5103
1215  5216
1216  5198
1217  5254
1218  5186
1219  5260
1220  5290
1221  5260
1222  5185
1223  5208
1224  5270
1225  5325
1226  5223
1227  5254
1228  5221
1229  5149
1230  5225
1231  5122
1232  5159
1233  5275
1234  5212
1235  5241
1236  5244
1237  5168
1238  5217
1239  5289
1240  5175
1241  5184
1242  5277
1243  5305
1244  5269
1245  5272
1246  5246
1247  5301
1248  5225
1249  5228
1250  5295
1251  5314
1252  5249
1253  5282
1254  5089
1255  5095
1256  5113
1257  5269
1258  5283
1259  5285
1260  5288
1261  5281
1262  5176
1263  5181
1264  5253
1265  5155
1266  5291
1267  5198
1268  5205
1269  5227
1270  5317
1271  5273
1272  5277
1273  5144
1274  5301
1275  5165
1276  5168
1277  5185
1278  5293
1279  5202
1280  5397
1281  5121
1282  5176
1283  5236
1284  5294
1285  5184
1286  5080
1287  5260
1288  5246
1289  5133
1290  5232
1291  5278
1292  5177
1293  5259
1294  5234
1295  5239
1296  5157
1297  5273
1298  5388
1299  5265
1300  5297
1301  5292
1302  5274
1303  5222
1304  5254
1305  5457
1306  5300
1307  5233
1308  5241
1309  5120
1310  5181
1311  5156
1312  5273
1313  5255
1314  5218
1315  5224
1316  5359
1317  5410
1318  5155
1319  5123
1320  5179
1321  5204
1322  5199
1323  5162
1324  5320
1325  5233
1326  5127
1327  5241
1328  5201
1329  5301
1330  5236
1331  5225
1332  5257
1333  5190
1334  5370
1335  5368
1336  5360
1337  5096
1338  5135
1339  5270
1340  5238
1341  5318
1342  5133
1343  5238
1344  5144
1345  5217
1346  5258
1347  5320
1348  5313
1349  5184
1350  5200
1351  5149
1352  5299
1353  5275
1354  5352
1355  5293
1356  5103
1357  5267
1358  5287
1359  5157
1360  5341
1361  5131
1362  5196
1363  5181
1364  5221
1365  5245
1366  5296
1367  5281
1368  5117
1369  5257
1370  5309
1371  5155
1372  5241
1373  5255
1374  5163
1375  5262
1376  5178
1377  5282
1378  5218
1379  5235
1380  5288
1381  5137
1382  5150
1383  5210
1384  5137
1385  5265
1386  5273
1387  5317
1388  5211
1389  5300
1390  5144
1391  5232
1392  5191
1393  5336
1394  5326
1395  5180
1396  5257
1397  5186
1398  5290
1399  5319
1400  5149
1401  5193
1402  5183
1403  5339
1404  5350
1405  5195
1406  5280
1407  5133
1408  5238
1409  5186
1410  5118
1411  5180
1412  5266
1413  5096
1414  5237
1415  5454
1416  5110
1417  5230
1418  5200
1419  5301
1420  5244
1421  5187
1422  5130
1423  5095
1424  5192
1425  5219
1426  5327
1427  5270
1428  5276
1429  5215
1430  5254
1431  5300
1432  5138
1433  5361
1434  5265
1435  5160
1436  5306
1437  5178
1438  5371
1439  5234
1440  5268
1441  5180
1442  5236
1443  5134
1444  5278
1445  5189
1446  5280
1447  5351
1448  5284
1449  5238
1450  5369
1451  5287
1452  5340
1453  5302
1454  5181
1455  5167
1456  5216
1457  5183
1458  5237
1459  5257
1460  5373
1461  5180
1462  5265
1463  5245
1464  5190
1465  5235
1466  5317
1467  5146
1468  5282
1469  5248
1470  5117
1471  5290
1472  5249
1473  5262
1474  5341
1475  5314
1476  5193
1477  5258
1478  5303
1479  5192
1480  5191
1481  5242
1482  5227
1483  5106
1484  5288
1485  5211
1486  5308
1487  5222
1488  5309
1489  5222
1490  5238
1491  5252
1492  5178
1493  5143
1494  5144
1495  5258
1496  5219
1497  5183
1498  5381
1499  5201
1500  5264
1501  5238
1502  5159
1503  5308
1504  5277
1505  5250
1506  5302
1507  5140
1508  5281
1509  5245
1510  5263
1511  5137
1512  5347
1513  5163
1514  5233
1515  5321
1516  5208
1517  5211
1518  5214
1519  5007
1520  5284
1521  5239
1522  5246
1523  5212
1524  5226
1525  5274
1526  5155
1527  5224
1528  5295
1529  5246
1530  5178
1531  5132
1532  5230
1533  5189
1534  5242
1535  5245
1536  5125
1537  5252
1538  5220
1539  5095
1540  5331
1541  5240
1542  5121
1543  5064
1544  5366
1545  5211
1546  5352
1547  5205
1548  5292
1549  5159
1550  5189
1551  5159
1552  5359
1553  5352
1554  5360
1555  5198
1556  5269
1557  5252
1558  5142
1559  5246
1560  5113
1561  5232
1562  5094
1563  5275
1564  5230
1565  5266
1566  5221
1567  5318
1568  5260
1569  5368
1570  5245
1571  5156
1572  5185
1573  5230
1574  5240
1575  5143
1576  5257
1577  5318
1578  5423
1579  5185
1580  5182
1581  5308
1582  5178
1583  5163
1584  5149
1585  5124
1586  5233
1587  5169
1588  5156
1589  5093
1590  5173
1591  5194
1592  5200
1593  5250
1594  5252
1595  5165
1596  5217
1597  5255
1598  5298
1599  5197
1600  5361
1601  5343
1602  5259
1603  5305
1604  5226
1605  5202
1606  5377
1607  5251
1608  5424
1609  5214
1610  5256
1611  5115
1612  5320
1613  5240
1614  5346
1615  5309
1616  5218
1617  5218
1618  5209
1619  5305
1620  5107
1621  5061
1622  5221
1623  5234
1624  5252
1625  5187
1626  5278
1627  5248
1628  5188
1629  5278
1630  5233
1631  5213
1632  5275
1633  5291
1634  5104
1635  5121
1636  5347
1637  5267
1638  5298
1639  5262
1640  5220
1641  5262
1642  5249
1643  5247
1644  5244
1645  5316
1646  5234
1647  5206
1648  5134
1649  5249
1650  5179
1651  5246
1652  5346
1653  5257
1654  5291
1655  5336
1656  5237
1657  5121
1658  5235
1659  5259
1660  5197
1661  5195
1662  5210
1663  5275
1664  5160
1665  5311
1666  5124
1667  5214
1668  5189
1669  5308
1670  5202
1671  5144
1672  5295
1673  5315
1674  5096
1675  5229
1676  5123
1677  5290
1678  5197
1679  5172
1680  5243
1681  5159
1682  5170
1683  5269
1684  5269
1685  5250
1686  5224
1687  5338
1688  5266
1689  5184
1690  5188
1691  5257
1692  5172
1693  5261
1694  5230
1695  5232
1696  5281
1697  5225
1698  5076
1699  5258
1700  5246
1701  5225
1702  5239
1703  5174
1704  5190
1705  5316
1706  5307
1707  5193
1708  5237
1709  5166
1710  5257
1711  5207
1712  5259
1713  5250
1714  5166
1715  5062
1716  5188
1717  5333
1718  5197
1719  5208
1720  5244
1721  5166
1722  5207
1723  5295
1724  5234
1725  5245
1726  5321
1727  5293
1728  5058
1729  5112
1730  5212
1731  5197
1732  5277
1733  5256
1734  5376
1735  5314
1736  5199
1737  5248
1738  5314
1739  5250
1740  5085
1741  5231
1742  5223
1743  5208
1744  5300
1745  5233
1746  5298
1747  5250
1748  5368
1749  5352
1750  5206
1751  5175
1752  5132
1753  5163
1754  5185
1755  5170
1756  5243
1757  5285
1758  5234
1759  5178
1760  5167
1761  5169
1762  5296
1763  5413
1764  5139
1765  5179
1766  5279
1767  5162
1768  5299
1769  5214
1770  5268
1771  5118
1772  5201
1773  5266
1774  5227
1775  5335
1776  5227
1777  5157
1778  5328
1779  5266
1780  5317
1781  5183
1782  5260
1783  5072
1784  5365
1785  5161
1786  5327
1787  5091
1788  5145
1789  5264
1790  5104
1791  5174
1792  5224
1793  5082
1794  5284
1795  5207
1796  5256
1797  5224
1798  5176
1799  5182
1800  5336
1801  5076
1802  5146
1803  5236
1804  5323
1805  5217
1806  5171
1807  5184
1808  5224
1809  5192
1810  5296
1811  5324
1812  5204
1813  5182
1814  5272
1815  5240
1816  5152
1817  5251
1818  5272
1819  5146
1820  5243
1821  5317
1822  5198
1823  5333
1824  5240
1825  5294
1826  5171
1827  5249
1828  5384
1829  5221
1830  5226
1831  5223
1832  5416
1833  5297
1834  5358
1835  5249
1836  5335
1837  5235
1838  5237
1839  5030
1840  5235
1841  5380
1842  5242
1843  5333
1844  5224
1845  5405
1846  5272
1847  5261
1848  5299
1849  5154
1850  5213
1851  5359
1852  5267
1853  5199
1854  5327
1855  5096
1856  5171
1857  5136
1858  5291
1859  5295
1860  5251
1861  5337
1862  5290
1863  5234
1864  5353
1865  5331
1866  5249
1867  5242
1868  5293
1869  5278
1870  5167
1871  5126
1872  5221
1873  5291
1874  5273
1875  5257
1876  5146
1877  5109
1878  5088
1879  5296
1880  5228
1881  5138
1882  5233
1883  5137
1884  5244
1885  5281
1886  5369
1887  5189
1888  5203
1889  5175
1890  5333
1891  5301
1892  5198
1893  5162
1894  5187
1895  5169
1896  5161
1897  5240
1898  5288
1899  5178
1900  5275
1901  5140
1902  5092
1903  5199
1904  5272
1905  5089
1906  5238
1907  5255
1908  5291
1909  5147
1910  5201
1911  5141
1912  5203
1913  5158
1914  5214
1915  5238
1916  5248
1917  5316
1918  5176
1919  5245
1920  5246
1921  5271
1922  5195
1923  5292
1924  5195
1925  5311
1926  5137
1927  5217
1928  5208
1929  5297
1930  5240
1931  5223
1932  5148
1933  5147
1934  5284
1935  5250
1936  5264
1937  5221
1938  5269
1939  5246
1940  5280
1941  5332
1942  5234
1943  5175
1944  5158
1945  5192
1946  5212
1947  5374
1948  5273
1949  5155
1950  5278
1951  5240
1952  5246
1953  5220
1954  5331
1955  5263
1956  5246
1957  5175
1958  5210
1959  5289
1960  5210
1961  5167
1962  5268
1963  5221
1964  5257
1965  5108
1966  5267
1967  5219
1968  5242
1969  5252
1970  5208
1971  5191
1972  5282
1973  5256
1974  5262
1975  5327
1976  5108
1977  5199
1978  5230
1979  5305
1980  5283
1981  5215
1982  5226
1983  5150
1984  5125
1985  5219
1986  5106
1987  5175
1988  5234
1989  5257
1990  5306
1991  5161
1992  5105
1993  5303
1994  5146
1995  5171
1996  5246
1997  5183
1998  5111
1999  5235
2000  5191
2001  5217
2002  5280
2003  5210
2004  5287
2005  5295
2006  5119
2007  5120
2008  5293
2009  5157
2010  5107
2011  5211
2012  5233
2013  5233
2014  5168
2015  5125
2016  5260
2017  5136
2018  5230
2019  5112
2020  5195
2021  5211
2022  5390
2023  5135
2024  5227
2025  5272
2026  5296
2027  5208
2028  5067
2029  5289
2030  5229
2031  5234
2032  5230
2033  5381
2034  5365
2035  5229
2036  5276
2037  5280
2038  5178
2039  5215
2040  5209
2041  5241
2042  5170
2043  5251
2044  5176
2045  5165
2046  5223
2047  5323
2048  5186
2049  5124
2050  5288
2051  5368
2052  5370
2053  5201
2054  5335
2055  5255
2056  5328
2057  5233
2058  5207
2059  5188
2060  5179
2061  5295
2062  5158
2063  5328
2064  5132
2065  5210
2066  5215
2067  5191
2068  5177
2069  5318
2070  5286
2071  5353
2072  5206
2073  5257
2074  5113
2075  5251
2076  5200
2077  5258
2078  5227
2079  5241
2080  5250
2081  5200
2082  5144
2083  5205
2084  5230
2085  5187
2086  5199
2087  5194
2088  5318
2089  5195
2090  5169
2091  5248
2092  5169
2093  5236
2094  5148
2095  5365
2096  5339
2097  5347
2098  5160
2099  5157
2100  5228
2101  5245
2102  5236
2103  5233
2104  5226
2105  5081
2106  5203
2107  5258
2108  5195
2109  5188
2110  5307
2111  5220
2112  5139
2113  5167
2114  5134
2115  5122
2116  5182
2117  5357
2118  5266
2119  5169
2120  5258
2121  5257
2122  5199
2123  5253
2124  5376
2125  5154
2126  5391
2127  5322
2128  5294
2129  5282
2130  5404
2131  5212
2132  5125
2133  5257
2134  5241
2135  5145
2136  5184
2137  5154
2138  5118
2139  5290
2140  5192
2141  5027
2142  5274
2143  5307
2144  5293
2145  5274
2146  5272
2147  5127
2148  5274
2149  5221
2150  5096
2151  5115
2152  5288
2153  5302
2154  5205
2155  5135
2156  5144
2157  5321
2158  5160
2159  5190
2160  5204
2161  5138
2162  5270
2163  5297
2164  5176
2165  5232
2166  5144
2167  5306
2168  5292
2169  5140
2170  5357
2171  5104
2172  5135
2173  5253
2174  5210
2175  5271
2176  5274
2177  5309
2178  5195
2179  5215
2180  5206
2181  5275
2182  5239
2183  5295
2184  5356
2185  5226
2186  5324
2187  5134
2188  5323
2189  5357
2190  5291
2191  5291
2192  5277
2193  5335
2194  5285
2195  5087
2196  5199
2197  5271
2198  5232
2199  5277
2200  5156
2201  5237
2202  5321
2203  5259
2204  5229
2205  5082
2206  5238
2207  5182
2208  5316
2209  5240
2210  5295
2211  5167
2212  5257
2213  5261
2214  5299
2215  5234
2216  5282
2217  5280
2218  5193
2219  5339
2220  5187
2221  5170
2222  5180
2223  5275
2224  5166
2225  5285
2226  5251
2227  5282
2228  5261
2229  5168
2230  5265
2231  5255
2232  5308
2233  5230
2234  5201
2235  5349
2236  5157
2237  5321
2238  5194
2239  5183
2240  5204
2241  5284
2242  5135
2243  5187
2244  5103
2245  5273
2246  5125
2247  5307
2248  5149
2249  5169
2250  5232
2251  5174
2252  5168
2253  5354
2254  5165
2255  5287
2256  5256
2257  5221
2258  5304
2259  5299
2260  5265
2261  5116
2262  5172
2263  5146
2264  5332
2265  5261
2266  5219
2267  5260
2268  5191
2269  5132
2270  5170
2271  5274
2272  5181
2273  5333
2274  5314
2275  5129
2276  5228
2277  5162
2278  5137
2279  5197
2280  5191
2281  5375
2282  5153
2283  5279
2284  5309
2285  5226
2286  5119
2287  5191
2288  5283
2289  5222
2290  5223
2291  5240
2292  5272
2293  5156
2294  5213
2295  5225
2296  5411
2297  5302
2298  5286
2299  5280
2300  5345
2301  5330
2302  5267
2303  5367
2304  5291
2305  5214
2306  5208
2307  5138
2308  5076
2309  5260
2310  5214
2311  5151
2312  5347
2313  5274
2314  5256
2315  5156
2316  5169
2317  5300
2318  5099
2319  5311
2320  5167
2321  5130
2322  5157
2323  5307
2324  5210
2325  5324
2326  5128
2327  5241
2328  5186
2329  5266
2330  5209
2331  5196
2332  5384
2333  5221
2334  5183
2335  5277
2336  5227
2337  5217
2338  5291
2339  5203
2340  5218
2341  5325
2342  5325
2343  5224
2344  5317
2345  5204
2346  5209
2347  5253
2348  5335
2349  5306
2350  5196
2351  5092
2352  5142
2353  5291
2354  5168
2355  5307
2356  5236
2357  5246
2358  5101
2359  5252
2360  5174
2361  5282
2362  5137
2363  5143
2364  5087
2365  5110
2366  5198
2367  5297
2368  5130
2369  5206
2370  5243
2371  5284
2372  5286
2373  5164
2374  5247
2375  5278
2376  5362
2377  5180
2378  5185
2379  5214
2380  5220
2381  5293
2382  5186
2383  5198
2384  5299
2385  5267
2386  5349
2387  5188
2388  5163
2389  5274
2390  5256
2391  5269
2392  5242
2393  5176
2394  5342
2395  5236
2396  5231
2397  5319
2398  5314
2399  5213
2400  5325
2401  5275
2402  5193
2403  5234
2404  5294
2405  5188
2406  5259
2407  5209
2408  5240
2409  5296
2410  5287
2411  5164
2412  5136
2413  5331
2414  5238
2415  5303
2416  5160
2417  5201
2418  5281
2419  5248
2420  5172
2421  5267
2422  5215
2423  5191
2424  5059
2425  5255
2426  5201
2427  5154
2428  5239
2429  5148
2430  5173
2431  5227
2432  5189
2433  5118
2434  5269
2435  5142
2436  5207
2437  5216
2438  5221
2439  5354
2440  5269
2441  5240
2442  5156
2443  5289
2444  5370
2445  5252
2446  5241
2447  5149
2448  5245
2449  5235
2450  5285
2451  5214
2452  5251
2453  5228
2454  5099
2455  5354
2456  5271
2457  5394
2458  5179
2459  5220
2460  5294
2461  5147
2462  5379
2463  5218
2464  5232
2465  5290
2466  5242
2467  5275
2468  5301
2469  5372
2470  5277
2471  5339
2472  5302
2473  5247
2474  5281
2475  5190
2476  5262
2477  5210
2478  5365
2479  5292
2480  5125
2481  5166
2482  5230
2483  5279
2484  5259
2485  5252
2486  5109
2487  5082
2488  5283
2489  5286
2490  5202
2491  5236
2492  5149
2493  5314
2494  5323
2495  5245
2496  5310
2497  5228
2498  5290
2499  5294
2500  5245
2501  5123
2502  5146
2503  5200
2504  5131
2505  5226
2506  5332
2507  5184
2508  5083
2509  5276
2510  5326
2511  5259
2512  5154
2513  5105
2514  5101
2515  5086
2516  5324
2517  5150
2518  5277
2519  5264
2520  5161
2521  5336
2522  5197
2523  5228
2524  5130
2525  5177
2526  5190
2527  5231
2528  5206
2529  5270
2530  5260
2531  5108
2532  5238
2533  5220
2534  5267
2535  5309
2536  5246
2537  5304
2538  5353
2539  5232
2540  5372
2541  5310
2542  5265
2543  5115
2544  5252
2545  5303
2546  5254
2547  5297
2548  5192
2549  5236
2550  5257
2551  5283
2552  5134
2553  5389
2554  5167
2555  5166
2556  5347
2557  5257
2558  5222
2559  5217
2560  5191
2561  5128
2562  5167
2563  5296
2564  5328
2565  5193
2566  5396
2567  5192
2568  5239
2569  5119
2570  5195
2571  5149
2572  5153
2573  5132
2574  5185
2575  5257
2576  5309
2577  5226
2578  5306
2579  5177
2580  5101
2581  5205
2582  5208
2583  5303
2584  5193
2585  5208
2586  5285
2587  5339
2588  5212
2589  5273
2590  5320
2591  5178
2592  5316
2593  5199
2594  5294
2595  5309
2596  5255
2597  5210
2598  5294
2599  5272
2600  5165
2601  5309
2602  5265
2603  5288
2604  5405
2605  5346
2606  5157
2607  5390
2608  5106
2609  5190
2610  5331
2611  5194
2612  5120
2613  5368
2614  5316
2615  5287
2616  5228
2617  5406
2618  5104
2619  5076
2620  5139
2621  5275
2622  5266
2623  5169
2624  5141
2625  5349
2626  5276
2627  5237
2628  5219
2629  5310
2630  5156
2631  5211
2632  5353
2633  5094
2634  5171
2635  5315
2636  5241
2637  5023
2638  5205
2639  5347
2640  5274
2641  5406
2642  5265
2643  5166
2644  5298
2645  5289
2646  5141
2647  5176
2648  5306
2649  5249
2650  5300
2651  5201
2652  5239
2653  5219
2654  5253
2655  5197
2656  5239
2657  5294
2658  5184
2659  5200
2660  5265
2661  5167
2662  5251
2663  5176
2664  5260
2665  5213
2666  5220
2667  5346
2668  5223
2669  5229
2670  5269
2671  5208
2672  5303
2673  5266
2674  5261
2675  5278
2676  5217
2677  5312
2678  5216
2679  5198
2680  5213
2681  5176
2682  5318
2683  5207
2684  5334
2685  5227
2686  5112
2687  5331
2688  5153
2689  5219
2690  5232
2691  5160
2692  5237
2693  5272
2694  5094
2695  5163
2696  5296
2697  5267
2698  5175
2699  5250
2700  5107
2701  5166
2702  5218
2703  5245
2704  5313
2705  5112
2706  5174
2707  5213
2708  5211
2709  5217
2710  5194
2711  5233
2712  5110
2713  5195
2714  5159
2715  5249
2716  5180
2717  5197
2718  5256
2719  5234
2720  5307
2721  5143
2722  5249
2723  5206
2724  5200
2725  5300
2726  5257
2727  5209
2728  5199
2729  5150
2730  5303
2731  5182
2732  5141
2733  5203
2734  5324
2735  5268
2736  5245
2737  5248
2738  5277
2739  5055
2740  5317
2741  5147
2742  5226
2743  5165
2744  5211
2745  5111
2746  5201
2747  5217
2748  5308
2749  5178
2750  5262
2751  5059
2752  5252
2753  5274
2754  5178
2755  5098
2756  5280
2757  5299
2758  5219
2759  5162
2760  5153
2761  5180
2762  5247
2763  5184
2764  5190
2765  5300
2766  5264
2767  5209
2768  5148
2769  5254
2770  5350
2771  5302
2772  5128
2773  5019
2774  5188
2775  5407
2776  5145
2777  5088
2778  5318
2779  5159
2780  5257
2781  5250
2782  5238
2783  5159
2784  5253
2785  5087
2786  5211
2787  5131
2788  5372
2789  5102
2790  5315
2791  5170
2792  5165
2793  5344
2794  5303
2795  5188
2796  5182
2797  5202
2798  5328
2799  5291
2800  5180
2801  5307
2802  5250
2803  5207
2804  5154
2805  5361
2806  5348
2807  5198
2808  5242
2809  5206
2810  5103
2811  5144
2812  5170
2813  5349
2814  5274
2815  5285
2816  5225
2817  5263
2818  5193
2819  5125
2820  5280
2821  5264
2822  5251
2823  5165
2824  5288
2825  5220
2826  5236
2827  5131
2828  5155
2829  5240
2830  5089
2831  5223
2832  5182
2833  5281
2834  5292
2835  5217
2836  5232
2837  5264
2838  5237
2839  5260
2840  5156
2841  5210
2842  5171
2843  5256
2844  5254
2845  5246
2846  5235
2847  5267
2848  5278
2849  5191
2850  5274
2851  5213
2852  5230
2853  5171
2854  5363
2855  5238
2856  5270
2857  5338
2858  5221
2859  5277
2860  5248
2861  5242
2862  5336
2863  5273
2864  5092
2865  5380
2866  5226
2867  5275
2868  5413
2869  5220
2870  5170
2871  5126
2872  5268
2873  5289
2874  5098
2875  5253
2876  5287
2877  5108
2878  5355
2879  5262
2880  5135
2881  5287
2882  5361
2883  5131
2884  5222
2885  5289
2886  5218
2887  5155
2888  5375
2889  5231
2890  5206
2891  5178
2892  5377
2893  5119
2894  5233
2895  5216
2896  5180
2897  5404
2898  5087
2899  5392
2900  5204
2901  5320
2902  5292
2903  5125
2904  5339
2905  5283
2906  5329
2907  5161
2908  5316
2909  5046
2910  5158
2911  5205
2912  5228
2913  5188
2914  5252
2915  5295
2916  5110
2917  5122
2918  5261
2919  5239
2920  5266
2921  5268
2922  5207
2923  5175
2924  5285
2925  5115
2926  5335
2927  5301
2928  5214
2929  5144
2930  5341
2931  5094
2932  5338
2933  5241
2934  5140
2935  5273
2936  5235
2937  5249
2938  5254
2939  5240
2940  5336
2941  5203
2942  5046
2943  5220
2944  5270
2945  5191
2946  5295
2947  5223
2948  5439
2949  5210
2950  5198
2951  5108
2952  5242
2953  5295
2954  5240
2955  5311
2956  5355
2957  5321
2958  5249
2959  5251
2960  5249
2961  5270
2962  5371
2963  5392
2964  5297
2965  5223
2966  5142
2967  5332
2968  5136
2969  5167
2970  5277
2971  5098
2972  5184
2973  5182
2974  5233
2975  5226
2976  5186
2977  5101
2978  5198
2979  5352
2980  5393
2981  5123
2982  5363
2983  5312
2984  5250
2985  5248
2986  5198
2987  5174
2988  5103
2989  5244
2990  5239
2991  5090
2992  5235
2993  5100
2994  5247
2995  5225
2996  5349
2997  5396
2998  5221
2999  5250
3000  5261
3001  4997
3002  5293
3003  5170
3004  5167
3005  5357
3006  5285
3007  5266
3008  5234
3009  5190
3010  5321
3011  5173
3012  5268
3013  5181
3014  5199
3015  5284
3016  5252
3017  5262
3018  5130
3019  5093
3020  5267
3021  5230
3022  5256
3023  5278
3024  5216
3025  5329
3026  5138
3027  5265
3028  5223
3029  5108
3030  5143
3031  5243
3032  5266
3033  5197
3034  5277
3035  5191
3036  5325
3037  5213
3038  5174
3039  5362
3040  5345
3041  5263
3042  5296
3043  5277
3044  5268
3045  5309
3046  5321
3047  5164
3048  5250
3049  5341
3050  5226
3051  5263
3052  5237
3053  5120
3054  5135
3055  5205
3056  5286
3057  5369
3058  5123
3059  5185
3060  5325
3061  5221
3062  5189
3063  5224
3064  5293
3065  5179
3066  5161
3067  5185
3068  5167
3069  5187
3070  5261
3071  5216
3072  5120
3073  5108
3074  5259
3075  5190
3076  5080
3077  5293
3078  5121
3079  5159
3080  5220
3081  5206
3082  5382
3083  5260
3084  5239
3085  5107
3086  5199
3087  5238
3088  5249
3089  5200
3090  5215
3091  5073
3092  5274
3093  5159
3094  5189
3095  5306
3096  5215
3097  5223
3098  5161
3099  5172
3100  5283
3101  5207
3102  5158
3103  5303
3104  5300
3105  5295
3106  5392
3107  5191
3108  5167
3109  5280
3110  5326
3111  5255
3112  5250
3113  5135
3114  5335
3115  5173
3116  5329
3117  5207
3118  5146
3119  5263
3120  5250
3121  5257
3122  5267
3123  5308
3124  5153
3125  5250
3126  5253
3127  5253
3128  5136
3129  5289
3130  5218
3131  5161
3132  5121
3133  5152
3134  5272
3135  5216
3136  5255
3137  5265
3138  5178
3139  5209
3140  5155
3141  5132
3142  5269
3143  5162
3144  5197
3145  5230
3146  5278
3147  5121
3148  5344
3149  5398
3150  5263
3151  5292
3152  5148
3153  5300
3154  5196
3155  5278
3156  5237
3157  5172
3158  5329
3159  5208
3160  5219
3161  5294
3162  5325
3163  5289
3164  5329
3165  5329
3166  5307
3167  5368
3168  5222
3169  5326
3170  5167
3171  5237
3172  5370
3173  5220
3174  5200
3175  5333
3176  5203
3177  5212
3178  5280
3179  5179
3180  5315
3181  5159
3182  5473
3183  5191
3184  5331
3185  5223
3186  5125
3187  5247
3188  5367
3189  5295
3190  5160
3191  5232
3192  5223
3193  5378
3194  5290
3195  5315
3196  5315
3197  5377
3198  5271
3199  5125
3200  5300
3201  5329
3202  5325
3203  5373
3204  5117
3205  5164
3206  5295
3207  5207
3208  5245
3209  5296
3210  5306
3211  5229
3212  5345
3213  5198
3214  5160
3215  5216
3216  5317
3217  5286
3218  5227
3219  5161
3220  5290
3221  5229
3222  5249
3223  5259
3224  5230
3225  5384
3226  5344
3227  5209
3228  5417
3229  5345
3230  5331
3231  5232
3232  5210
3233  5324
3234  5134
3235  5216
3236  5272
3237  5304
3238  5242
3239  5238
3240  5319
3241  5267
3242  5243
3243  5222
3244  5186
3245  5345
3246  5416
3247  5259
3248  5241
3249  5232
3250  5320
3251  5068
3252  5281
3253  5164
3254  5287
3255  5214
3256  5282
3257  5327
3258  5202
3259  5330
3260  5253
3261  5215
3262  5259
3263  5226
3264  5246
3265  5188
3266  5290
3267  5325
3268  5267
3269  5199
3270  5306
3271  5284
3272  5257
3273  5398
3274  5183
3275  5116
3276  5190
3277  5330
3278  5203
3279  5283
3280  5269
3281  5252
3282  5346
3283  5284
3284  5226
3285  5391
3286  5192
3287  5211
3288  5259
3289  5133
3290  5193
3291  5179
3292  5265
3293  5249
3294  5225
3295  5206
3296  5162
3297  5308
3298  5212
3299  5174
3300  5310
3301  5221
3302  5263
3303  5154
3304  5335
3305  5152
3306  5360
3307  5160
3308  5207
3309  5287
3310  5203
3311  5209
3312  5292
3313  5280
3314  5154
3315  5212
3316  5149
3317  5052
3318  5129
3319  5287
3320  5300
3321  5272
3322  5227
3323  5258
3324  5194
3325  5350
3326  5264
3327  5253
3328  5377
3329  5197
3330  5260
3331  5285
3332  5325
3333  5368
3334  5320
3335  5242
3336  5319
3337  5253
3338  5313
3339  5170
3340  5294
3341  5168
3342  5186
3343  5206
3344  5231
3345  5303
3346  5226
3347  5184
3348  5269
3349  5217
3350  5191
3351  5251
3352  5255
3353  5278
3354  5479
3355  5204
3356  5210
3357  5137
3358  5264
3359  5242
3360  5269
3361  5302
3362  5392
3363  5275
3364  5217
3365  5260
3366  5213
3367  5184
3368  5277
3369  5113
3370  5261
3371  5243
3372  5182
3373  5325
3374  5315
3375  5254
3376  5138
3377  5248
3378  5160
3379  5169
3380  5337
3381  5224
3382  5290
3383  5155
3384  5212
3385  5168
3386  5383
3387  5312
3388  5249
3389  5232
3390  5274
3391  5459
3392  5164
3393  5271
3394  5180
3395  5383
3396  5415
3397  5276
3398  5273
3399  5301
3400  5275
3401  5178
3402  5108
3403  5257
3404  5206
3405  5189
3406  5036
3407  5252
3408  5170
3409  5095
3410  5207
3411  5264
3412  5098
3413  5206
3414  5361
3415  5200
3416  5289
3417  5261
3418  5156
3419  5191
3420  5290
3421  5232
3422  5252
3423  5282
3424  5343
3425  5279
3426  5169
3427  5189
3428  5206
3429  5297
3430  5195
3431  5156
3432  5154
3433  5231
3434  5368
3435  5273
3436  5146
3437  5245
3438  5425
3439  5288
3440  5364
3441  5313
3442  5212
3443  5365
3444  5255
3445  5318
3446  5279
3447  5254
3448  5330
3449  5488
3450  5211
3451  5205
3452  5206
3453  5186
3454  5253
3455  5255
3456  5315
3457  5244
3458  5181
3459  5216
3460  5062
3461  5346
3462  5170
3463  5139
3464  5267
3465  5285
3466  5201
3467  5284
3468  5194
3469  5267
3470  5305
3471  5233
3472  5294
3473  5328
3474  5216
3475  5218
3476  5272
3477  5238
3478  5195
3479  5077
3480  5308
3481  5327
3482  5308
3483  5113
3484  5307
3485  5399
3486  5197
3487  5329
3488  5191
3489  4895
3490  4823
3491  4503
3492  4108
3493  3570
3494  3169
3495  2656
3496  2229
3497  1936
3498  1590
3499  1353
3500  1213
3501  1145
3502  972
3503  827
3504  721
3505  538
3506  418
3507  325
3508  198
3509  124
3510  93
3511  57
3512  51
3513  34
3514  33
3515  19
3516  22
3517  12
3518  10
3519  7
3520  4
3521  5
3522  2
3523  4
3524  2
3525  2
3526  1
3527  1
3528  0
3529  0
3530  0
3531  0
3532  0
3533  0
3534  0
3535  0
3536  0
3537  0
3538  0
3539  0
3540  0
3541  0
3542  0
3543  0
3544  0
3545  0
3546  0
3547  0
3548  0
3549  0
3550  0
3551  0
3552  0
3553  0
3554  0
3555  0
3556  0
3557  0
3558  0
3559  0
3560  0
3561  0
3562  0
3563  0
3564  0
3565  0
3566  0
3567  0
3568  0
3569  0
3570  0
3571  0
3572  0
3573  0
3574  0
3575  0
3576  0
3577  0
3578  0
3579  0
3580  0
3581  0
3582  0
3583  0
3584  0
3585  0
3586  0
3587  0
3588  0
3589  0
3590  0
3591  0
3592  0
3593  0
3594  0
3595  0
3596  0
3597  0
3598  0
3599  0
3600  0
3601  0
3602  0
3603  0
3604  0
3605  0
3606  0
3607  0
3608  0
3609  0
3610  0
3611  0
3612  0
3613  0
3614  0
3615  0
3616  0
3617  0
3618  0
3619  0
3620  0
3621  0
3622  0
3623  0
3624  0
3625  0
3626  0
3627  0
3628  0
3629  0
3630  0
3631  0
3632  0
3633  0
3634  0
3635  0
3636  0
3637  0
3638  0
3639  0
3640  0
3641  0
3642  0
3643  0
3644  0
3645  0
3646  0
3647  0
3648  0
3649  0
3650  0
3651  0
3652  0
3653  0
3654  0
3655  0
3656  0
3657  0
3658  0
3659  0
3660  0
3661  0
3662  0
3663  0
3664  0
3665  0
3666  0
3667  0
3668  0
3669  0
3670  0
3671  0
3672  0
3673  0
3674  0
3675  0
3676  0
3677  0
3678  0
3679  0
3680  0
3681  0
3682  0
3683  0
3684  0
3685  0
3686  0
3687  0
3688  0
3689  0
3690  0
3691  0
3692  0
3693  0
3694  0
3695  0
3696  0
3697  0
3698  0
3699  0
3700  0
3701  0
3702  0
3703  0
3704  0
3705  0
3706  0
3707  0
3708  0
3709  0
3710  0
3711  0
3712  0
3713  0
3714  0
3715  0
3716  0
3717  0
3718  0
3719  0
3720  0
3721  0
3722  0
3723  0
3724  0
3725  0
3726  0
3727  0
3728  0
3729  0
3730  0
3731  0
3732  0
3733  0
3734  0
3735  0
3736  0
3737  0
3738  0
3739  0
3740  0
3741  0
3742  0
3743  0
3744  0
3745  0
3746  0
3747  0
3748  0
3749  0
3750  0
3751  0
3752  0
3753  0
3754  0
3755  0
3756  0
3757  0
3758  0
3759  0
3760  0
3761  0
3762  0
3763  0
3764  0
3765  0
3766  0
3767  0
3768  0
3769  0
3770  0
3771  0
3772  0
3773  0
3774  0
3775  0
3776  0
3777  0
3778  0
3779  0
3780  0
3781  0
3782  0
3783  0
3784  0
3785  0
3786  0
3787  0
3788  0
3789  0
3790  0
3791  0
3792  0
3793  0
3794  0
3795  0
3796  0
3797  0
3798  0
3799  0
3800  0
3801  0
3802  0
3803  0
3804  0
3805  0
3806  0
3807  0
3808  0
3809  0
3810  0
3811  0
3812  0
3813  0
3814  0
3815  0
3816  0
3817  0
3818  0
3819  0
3820  0
3821  0
3822  0
3823  0
3824  0
3825  0
3826  0
3827  0
3828  0
3829  0
3830  0
3831  0
3832  0
3833  0
3834  0
3835  0
3836  0
3837  0
3838  0
3839  0
3840  0
3841  0
3842  0
3843  0
3844  0
3845  0
3846  0
3847  0
3848  0
3849  0
3850  0
3851  0
3852  0
3853  0
3854  0
3855  0
3856  0
3857  0
3858  0
3859  0
3860  0
3861  0
3862  0
3863  0
3864  0
3865  0
3866  0
3867  0
3868  0
3869  0
3870  0
3871  0
3872  0
3873  0
3874  0
3875  0
3876  0
3877  0
3878  0
3879  0
3880  0
3881  0
3882  0
3883  0
3884  0
3885  0
3886  0
3887  0
3888  0
3889  0
3890  0
3891  0
3892  0
3893  0
3894  0
3895  0
3896  0
3897  0
3898  0
3899  0
3900  0
3901  0
3902  0
3903  0
3904  0
3905  0
3906  0
3907  0
3908  0
3909  0
3910  0
3911  0
3912  0
3913  0
3914  0
3915  0
3916  0
3917  0
3918  0
3919  0
3920  0
3921  0
3922  0
3923  0
3924  0
3925  0
3926  0
3927  0
3928  0
3929  0
3930  0
3931  0
3932  0
3933  0
3934  0
3935  0
3936  0
3937  0
3938  0
3939  0
3940  0
3941  0
3942  0
3943  0
3944  0
3945  0
3946  0
3947  0
3948  0
3949  0
3950  0
3951  0
3952  0
3953  0
3954  0
3955  0
3956  0
3957  0
3958  0
3959  0
3960  0
3961  0
3962  0
3963  0
3964  0
3965  0
3966  0
3967  0
3968  0
3969  0
3970  0
3971  0
3972  0
3973  0
3974  0
3975  0
3976  0
3977  0
3978  0
3979  0
3980  0
3981  0
3982  0
3983  0
3984  0
3985  0
3986  0
3987  0
3988  0
3989  0
3990  0
3991  0
3992  0
3993  0
3994  0
3995  0
3996  0
3997  0
3998  0
3999  0
4000  0
4001  0
4002  0
4003  0
4004  0
4005  0
4006  0
4007  0
4008  0
4009  0
4010  0
4011  0
4012  0
4013  0
4014  0
4015  0
4016  0
4017  0
4018  0
4019  0
4020  0
4021  0
4022  0
4023  0
4024  0
4025  0
4026  0
4027  0
4028  0
4029  0
4030  0
4031  0
4032  0
4033  0
4034  0
4035  0
4036  0
4037  0
4038  0
4039  0
4040  0
4041  0
4042  0
4043  0
4044  0
4045  0
4046  0
4047  0
4048  0
4049  0
4050  0
4051  0
4052  0
4053  0
4054  0
4055  0
4056  0
4057  0
4058  0
4059  0
4060  0
4061  0
4062  0
4063  0
4064  0
4065  0
4066  0
4067  0
4068  0
4069  0
4070  0
4071  0
4072  0
4073  0
4074  0
4075  0
4076  0
4077  0
4078  0
4079  0
4080  0
4081  0
4082  0
4083  0
4084  0
4085  0
4086  0
4087  0
4088  0
4089  0
4090  0
4091  0
4092  0
4093  0
4094  0
4095  0
