0  0
1  0
2  1
3  0
4  0
5  0
6  1
7  1
8  0
9  2
10  1
11  2
12  4
13  2
14  5
15  82
16  1228
17  8086
18  20903
19  26117
20  20138
21  12479
22  9576
23  9617
24  9932
25  9916
26  10004
27  9674
28  9769
29  9586
30  9633
31  9377
32  9291
33  9282
34  9313
35  9220
36  8853
37  9162
38  9045
39  8751
40  8495
41  7082
42  5158
43  3617
44  2580
45  1809
46  1045
47  527
48  292
49  190
50  96
51  83
52  55
53  29
54  24
55  15
56  15
57  14
58  10
59  6
60  8
61  2
62  1
63  4
64  3
65  3
66  4
67  2
68  1
69  1
70  0
71  1
72  0
73  0
74  0
75  0
76  0
77  0
78  0
79  0
80  0
81  0
82  0
83  2
84  2
85  2
86  0
87  0
88  1
89  0
90  0
91  2
92  0
93  1
94  1
95  1
96  1
97  0
98  0
99  1
100  0
101  1
102  0
103  1
104  1
105  1
106  0
107  0
108  0
109  0
110  0
111  0
112  0
113  0
114  0
115  0
116  3
117  0
118  0
119  0
120  0
121  0
122  0
123  0
124  1
125  1
126  1
127  0
128  0
129  0
130  0
131  0
132  0
133  0
134  0
135  1
136  1
137  0
138  0
139  0
140  1
141  1
142  2
143  1
144  0
145  0
146  1
147  0
148  0
149  1
150  0
151  0
152  0
153  0
154  0
155  0
156  1
157  0
158  0
159  0
160  0
161  0
162  1
163  1
164  0
165  0
166  0
167  0
168  0
169  0
170  1
171  0
172  0
173  0
174  0
175  0
176  0
177  1
178  2
179  28
180  420
181  2713
182  7601
183  11853
184  14052
185  21220
186  38696
187  53861
188  52440
189  38446
190  24657
191  17287
192  13715
193  11497
194  10164
195  8987
196  8354
197  7607
198  7151
199  6990
200  6574
201  6381
202  6269
203  6073
204  6033
205  5967
206  5897
207  5835
208  5792
209  5880
210  5879
211  5734
212  5678
213  5616
214  5627
215  5615
216  5689
217  5651
218  5648
219  5594
220  5560
221  5573
222  5672
223  5599
224  5574
225  5511
226  5491
227  5671
228  5583
229  5447
230  5484
231  5606
232  5461
233  5607
234  5510
235  5398
236  5436
237  5615
238  5479
239  5540
240  5363
241  5316
242  5562
243  5452
244  5547
245  5525
246  5462
247  5512
248  5571
249  5598
250  5499
251  5470
252  5449
253  5467
254  5410
255  5402
256  5463
257  5477
258  5582
259  5610
260  5391
261  5516
262  5568
263  5570
264  5466
265  5272
266  5491
267  5383
268  5304
269  5499
270  5523
271  5383
272  5498
273  5297
274  5465
275  5385
276  5400
277  5427
278  5390
279  5385
280  5350
281  5344
282  5527
283  5434
284  5559
285  5341
286  5326
287  5328
288  5491
289  5428
290  5444
291  5505
292  5429
293  5482
294  5475
295  5588
296  5422
297  5592
298  5491
299  5464
300  5476
301  5501
302  5439
303  5448
304  5449
305  5521
306  5413
307  5517
308  5533
309  5612
310  5400
311  5496
312  5468
313  5337
314  5230
315  5510
316  5448
317  5452
318  5354
319  5404
320  5426
321  5548
322  5551
323  5382
324  5534
325  5616
326  5472
327  5558
328  5527
329  5556
330  5580
331  5601
332  5521
333  5463
334  5636
335  5520
336  5566
337  5528
338  5591
339  5618
340  5485
341  5458
342  5395
343  5532
344  5544
345  5485
346  5570
347  5376
348  5440
349  5577
350  5499
351  5317
352  5450
353  5432
354  5369
355  5391
356  5506
357  5525
358  5656
359  5503
360  5538
361  5491
362  5475
363  5491
364  5587
365  5584
366  5449
367  5538
368  5563
369  5526
370  5478
371  5708
372  5628
373  5555
374  5528
375  5580
376  5718
377  5464
378  5578
379  5361
380  5598
381  5478
382  5661
383  5403
384  5473
385  5457
386  5554
387  5417
388  5484
389  5408
390  5468
391  5544
392  5508
393  5457
394  5553
395  5492
396  5531
397  5430
398  5383
399  5381
400  5462
401  5461
402  5513
403  5434
404  5547
405  5391
406  5508
407  5459
408  5418
409  5411
410  5539
411  5525
412  5473
413  5538
414  5469
415  5563
416  5556
417  5330
418  5664
419  5508
420  5432
421  5410
422  5529
423  5548
424  5492
425  5450
426  5396
427  5473
428  5442
429  5391
430  5427
431  5564
432  5390
433  5341
434  5488
435  5504
436  5446
437  5358
438  5568
439  5537
440  5504
441  5416
442  5345
443  5344
444  5467
445  5405
446  5487
447  5406
448  5393
449  5299
450  5522
451  5485
452  5421
453  5457
454  5517
455  5499
456  5500
457  5443
458  5555
459  5414
460  5534
461  5410
462  5562
463  5614
464  5349
465  5497
466  5494
467  5468
468  5427
469  5426
470  5671
471  5444
472  5513
473  5543
474  5588
475  5559
476  5485
477  5389
478  5452
479  5550
480  5502
481  5453
482  5467
483  5372
484  5545
485  5374
486  5538
487  5436
488  5453
489  5326
490  5491
491  5547
492  5550
493  5534
494  5451
495  5544
496  5439
497  5630
498  5633
499  5425
500  5512
501  5710
502  5459
503  5588
504  5642
505  5521
506  5548
507  5456
508  5476
509  5463
510  5404
511  5517
512  5458
513  5599
514  5500
515  5484
516  5528
517  5468
518  5526
519  5529
520  5522
521  5464
522  5620
523  5680
524  5470
525  5466
526  5418
527  5392
528  5536
529  5426
530  5507
531  5348
532  5519
533  5449
534  5462
535  5399
536  5333
537  5440
538  5359
539  5569
540  5492
541  5452
542  5480
543  5467
544  5544
545  5541
546  5500
547  5694
548  5486
549  5448
550  5566
551  5511
552  5525
553  5596
554  5524
555  5544
556  5580
557  5576
558  5398
559  5412
560  5482
561  5510
562  5432
563  5486
564  5433
565  5485
566  5486
567  5526
568  5443
569  5564
570  5551
571  5660
572  5447
573  5402
574  5374
575  5405
576  5448
577  5356
578  5556
579  5444
580  5404
581  5599
582  5506
583  5408
584  5494
585  5548
586  5657
587  5468
588  5495
589  5568
590  5503
591  5486
592  5424
593  5539
594  5413
595  5479
596  5496
597  5547
598  5471
599  5520
600  5542
601  5375
602  5452
603  5590
604  5564
605  5562
606  5508
607  5520
608  5598
609  5437
610  5443
611  5475
612  5452
613  5552
614  5486
615  5546
616  5680
617  5359
618  5516
619  5487
620  5508
621  5574
622  5419
623  5466
624  5382
625  5337
626  5382
627  5469
628  5603
629  5469
630  5464
631  5449
632  5427
633  5462
634  5517
635  5280
636  5513
637  5442
638  5472
639  5578
640  5698
641  5400
642  5517
643  5661
644  5583
645  5610
646  5389
647  5654
648  5536
649  5458
650  5445
651  5611
652  5623
653  5472
654  5507
655  5349
656  5505
657  5636
658  5507
659  5401
660  5419
661  5500
662  5367
663  5483
664  5369
665  5545
666  5508
667  5572
668  5483
669  5445
670  5463
671  5477
672  5568
673  5445
674  5454
675  5440
676  5574
677  5491
678  5389
679  5480
680  5521
681  5406
682  5548
683  5461
684  5385
685  5588
686  5397
687  5426
688  5546
689  5585
690  5507
691  5485
692  5552
693  5569
694  5452
695  5462
696  5466
697  5486
698  5434
699  5403
700  5475
701  5510
702  5392
703  5344
704  5403
705  5559
706  5333
707  5440
708  5457
709  5446
710  5587
711  5539
712  5526
713  5408
714  5558
715  5439
716  5484
717  5562
718  5472
719  5483
720  5626
721  5455
722  5603
723  5410
724  5521
725  5573
726  5481
727  5457
728  5491
729  5502
730  5394
731  5546
732  5583
733  5394
734  5516
735  5420
736  5605
737  5384
738  5563
739  5374
740  5446
741  5511
742  5473
743  5507
744  5445
745  5412
746  5599
747  5541
748  5375
749  5452
750  5409
751  5463
752  5520
753  5548
754  5235
755  5421
756  5562
757  5495
758  5332
759  5441
760  5440
761  5524
762  5455
763  5555
764  5470
765  5602
766  5461
767  5557
768  5440
769  5577
770  5584
771  5475
772  5602
773  5553
774  5416
775  5533
776  5597
777  5492
778  5461
779  5480
780  5520
781  5532
782  5438
783  5518
784  5478
785  5546
786  5485
787  5408
788  5501
789  5498
790  5485
791  5536
792  5382
793  5454
794  5421
795  5567
796  5447
797  5391
798  5434
799  5393
800  5564
801  5466
802  5460
803  5443
804  5512
805  5356
806  5387
807  5546
808  5489
809  5468
810  5607
811  5493
812  5486
813  5557
814  5467
815  5562
816  5404
817  5541
818  5583
819  5613
820  5439
821  5522
822  5507
823  5546
824  5640
825  5536
826  5584
827  5481
828  5271
829  5665
830  5438
831  5577
832  5566
833  5608
834  5504
835  5557
836  5507
837  5475
838  5339
839  5469
840  5384
841  5479
842  5497
843  5574
844  5466
845  5470
846  5410
847  5578
848  5467
849  5428
850  5362
851  5461
852  5458
853  5457
854  5430
855  5528
856  5555
857  5361
858  5394
859  5529
860  5617
861  5412
862  5592
863  5519
864  5509
865  5561
866  5436
867  5453
868  5572
869  5592
870  5455
871  5484
872  5552
873  5377
874  5476
875  5558
876  5469
877  5494
878  5383
879  5476
880  5447
881  5320
882  5444
883  5606
884  5477
885  5559
886  5404
887  5524
888  5640
889  5412
890  5449
891  5362
892  5546
893  5405
894  5461
895  5470
896  5584
897  5509
898  5680
899  5572
900  5482
901  5587
902  5528
903  5674
904  5496
905  5496
906  5599
907  5417
908  5490
909  5354
910  5383
911  5470
912  5512
913  5449
914  5436
915  5366
916  5447
917  5471
918  5372
919  5457
920  5475
921  5408
922  5451
923  5565
924  5603
925  5667
926  5572
927  5435
928  5432
929  5388
930  5508
931  5364
932  5418
933  5471
934  5428
935  5436
936  5351
937  5334
938  5324
939  5381
940  5392
941  5364
942  5391
943  5559
944  5469
945  5477
946  5524
947  5522
948  5558
949  5495
950  5488
951  5577
952  5508
953  5453
954  5530
955  5475
956  5437
957  5550
958  5525
959  5511
960  5420
961  5406
962  5495
963  5438
964  5382
965  5511
966  5568
967  5477
968  5501
969  5480
970  5517
971  5496
972  5509
973  5450
974  5585
975  5357
976  5296
977  5528
978  5459
979  5546
980  5622
981  5505
982  5671
983  5449
984  5510
985  5452
986  5362
987  5435
988  5524
989  5517
990  5531
991  5308
992  5480
993  5560
994  5430
995  5469
996  5452
997  5546
998  5447
999  5493
1000  5437
1001  5503
1002  5445
1003  5412
1004  5504
1005  5481
1006  5499
1007  5563
1008  5517
1009  5448
1010  5366
1011  5489
1012  5371
1013  5447
1014  5507
1015  5335
1016  5376
1017  5391
1018  5506
1019  5490
1020  5433
1021  5628
1022  5405
1023  5448
1024  5541
1025  5419
1026  5537
1027  5622
1028  5466
1029  5365
1030  5409
1031  5402
1032  5505
1033  5427
1034  5413
1035  5346
1036  5520
1037  5486
1038  5497
1039  5555
1040  5409
1041  5551
1042  5483
1043  5511
1044  5526
1045  5572
1046  5409
1047  5563
1048  5520
1049  5492
1050  5557
1051  5517
1052  5316
1053  5382
1054  5495
1055  5484
1056  5434
1057  5575
1058  5503
1059  5430
1060  5546
1061  5533
1062  5641
1063  5501
1064  5492
1065  5476
1066  5338
1067  5378
1068  5401
1069  5547
1070  5412
1071  5610
1072  5422
1073  5487
1074  5347
1075  5422
1076  5482
1077  5533
1078  5383
1079  5563
1080  5495
1081  5606
1082  5472
1083  5533
1084  5567
1085  5535
1086  5437
1087  5408
1088  5526
1089  5550
1090  5343
1091  5448
1092  5585
1093  5494
1094  5390
1095  5588
1096  5490
1097  5462
1098  5302
1099  5435
1100  5535
1101  5595
1102  5443
1103  5425
1104  5386
1105  5583
1106  5448
1107  5377
1108  5392
1109  5444
1110  5329
1111  5356
1112  5570
1113  5501
1114  5548
1115  5585
1116  5422
1117  5554
1118  5503
1119  5497
1120  5536
1121  5573
1122  5471
1123  5473
1124  5448
1125  5426
1126  5538
1127  5462
1128  5529
1129  5404
1130  5609
1131  5492
1132  5537
1133  5544
1134  5442
1135  5319
1136  5459
1137  5482
1138  5207
1139  5458
1140  5441
1141  5306
1142  5453
1143  5471
1144  5506
1145  5601
1146  5517
1147  5489
1148  5417
1149  5430
1150  5502
1151  5559
1152  5416
1153  5397
1154  5348
1155  5515
1156  5581
1157  5425
1158  5527
1159  5466
1160  5441
1161  5510
1162  5569
1163  5448
1164  5433
1165  5540
1166  5444
1167  5501
1168  5584
1169  5428
1170  5534
1171  5454
1172  5596
1173  5500
1174  5491
1175  5423
1176  5374
1177  5423
1178  5572
1179  5564
1180  5501
1181  5505
1182  5459
1183  5568
1184  5479
1185  5441
1186  5372
1187  5356
1188  5598
1189  5609
1190  5528
1191  5529
1192  5502
1193  5475
1194  5570
1195  5571
1196  5561
1197  5368
1198  5563
1199  5488
1200  5593
1201  5531
1202  5527
1203  5470
1204  5530
1205  5432
1206  5539
1207  5508
1208  5608
1209  5392
1210  5542
1211  5495
1212  5463
1213  5586
1214  5569
1215  5478
1216  5493
1217  5522
1218  5482
1219  5520
1220  5312
1221  5456
1222  5456
1223  5476
1224  5534
1225  5579
1226  5513
1227  5522
1228  5500
1229  5468
1230  5503
1231  5516
1232  5475
1233  5460
1234  5413
1235  5548
1236  5432
1237  5372
1238  5449
1239  5509
1240  5312
1241  5427
1242  5583
1243  5553
1244  5557
1245  5368
1246  5581
1247  5553
1248  5446
1249  5493
1250  5512
1251  5621
1252  5548
1253  5562
1254  5590
1255  5463
1256  5468
1257  5477
1258  5720
1259  5492
1260  5503
1261  5395
1262  5534
1263  5422
1264  5512
1265  5450
1266  5435
1267  5516
1268  5610
1269  5360
1270  5624
1271  5397
1272  5488
1273  5524
1274  5365
1275  5613
1276  5590
1277  5524
1278  5408
1279  5514
1280  5528
1281  5376
1282  5433
1283  5582
1284  5597
1285  5438
1286  5456
1287  5452
1288  5497
1289  5568
1290  5427
1291  5374
1292  5482
1293  5564
1294  5612
1295  5450
1296  5422
1297  5505
1298  5439
1299  5470
1300  5500
1301  5366
1302  5503
1303  5402
1304  5539
1305  5372
1306  5548
1307  5495
1308  5419
1309  5542
1310  5533
1311  5440
1312  5499
1313  5457
1314  5609
1315  5490
1316  5599
1317  5511
1318  5458
1319  5554
1320  5417
1321  5401
1322  5582
1323  5614
1324  5504
1325  5578
1326  5496
1327  5374
1328  5503
1329  5394
1330  5446
1331  5429
1332  5564
1333  5409
1334  5432
1335  5490
1336  5530
1337  5442
1338  5513
1339  5383
1340  5542
1341  5513
1342  5524
1343  5520
1344  5578
1345  5466
1346  5482
1347  5383
1348  5493
1349  5592
1350  5565
1351  5507
1352  5492
1353  5406
1354  5543
1355  5476
1356  5348
1357  5539
1358  5581
1359  5510
1360  5470
1361  5358
1362  5547
1363  5490
1364  5502
1365  5408
1366  5553
1367  5484
1368  5386
1369  5469
1370  5546
1371  5493
1372  5540
1373  5470
1374  5363
1375  5514
1376  5427
1377  5405
1378  5491
1379  5582
1380  5437
1381  5518
1382  5610
1383  5517
1384  5423
1385  5484
1386  5501
1387  5539
1388  5398
1389  5563
1390  5542
1391  5481
1392  5540
1393  5397
1394  5610
1395  5532
1396  5430
1397  5541
1398  5451
1399  5553
1400  5450
1401  5510
1402  5564
1403  5564
1404  5423
1405  5628
1406  5627
1407  5430
1408  5454
1409  5500
1410  5402
1411  5475
1412  5354
1413  5443
1414  5556
1415  5448
1416  5380
1417  5530
1418  5480
1419  5480
1420  5422
1421  5450
1422  5563
1423  5428
1424  5536
1425  5580
1426  5500
1427  5433
1428  5468
1429  5486
1430  5444
1431  5528
1432  5471
1433  5487
1434  5513
1435  5491
1436  5408
1437  5482
1438  5548
1439  5433
1440  5591
1441  5408
1442  5575
1443  5460
1444  5559
1445  5485
1446  5435
1447  5618
1448  5411
1449  5527
1450  5470
1451  5529
1452  5641
1453  5392
1454  5460
1455  5427
1456  5381
1457  5441
1458  5471
1459  5400
1460  5360
1461  5569
1462  5521
1463  5398
1464  5533
1465  5460
1466  5523
1467  5471
1468  5486
1469  5405
1470  5524
1471  5557
1472  5432
1473  5601
1474  5531
1475  5463
1476  5457
1477  5558
1478  5606
1479  5541
1480  5521
1481  5467
1482  5404
1483  5358
1484  5476
1485  5476
1486  5412
1487  5485
1488  5441
1489  5626
1490  5620
1491  5445
1492  5381
1493  5476
1494  5385
1495  5565
1496  5456
1497  5455
1498  5556
1499  5416
1500  5531
1501  5453
1502  5466
1503  5340
1504  5535
1505  5484
1506  5428
1507  5397
1508  5544
1509  5463
1510  5584
1511  5416
1512  5361
1513  5634
1514  5670
1515  5521
1516  5486
1517  5500
1518  5464
1519  5531
1520  5521
1521  5654
1522  5318
1523  5469
1524  5538
1525  5434
1526  5466
1527  5446
1528  5575
1529  5604
1530  5617
1531  5508
1532  5640
1533  5393
1534  5536
1535  5456
1536  5415
1537  5416
1538  5441
1539  5463
1540  5567
1541  5565
1542  5517
1543  5449
1544  5535
1545  5377
1546  5506
1547  5551
1548  5512
1549  5475
1550  5633
1551  5557
1552  5487
1553  5519
1554  5395
1555  5449
1556  5544
1557  5479
1558  5457
1559  5512
1560  5507
1561  5552
1562  5408
1563  5528
1564  5627
1565  5440
1566  5687
1567  5512
1568  5569
1569  5408
1570  5314
1571  5659
1572  5470
1573  5535
1574  5439
1575  5448
1576  5479
1577  5447
1578  5588
1579  5497
1580  5587
1581  5474
1582  5521
1583  5512
1584  5417
1585  5491
1586  5469
1587  5394
1588  5540
1589  5322
1590  5412
1591  5431
1592  5437
1593  5372
1594  5476
1595  5515
1596  5687
1597  5503
1598  5558
1599  5435
1600  5443
1601  5462
1602  5573
1603  5466
1604  5617
1605  5511
1606  5468
1607  5517
1608  5434
1609  5427
1610  5505
1611  5492
1612  5444
1613  5489
1614  5439
1615  5483
1616  5390
1617  5652
1618  5407
1619  5626
1620  5579
1621  5471
1622  5442
1623  5371
1624  5506
1625  5488
1626  5605
1627  5423
1628  5432
1629  5533
1630  5450
1631  5524
1632  5502
1633  5500
1634  5526
1635  5452
1636  5593
1637  5549
1638  5564
1639  5581
1640  5506
1641  5757
1642  5538
1643  5394
1644  5425
1645  5488
1646  5452
1647  5604
1648  5485
1649  5603
1650  5632
1651  5516
1652  5472
1653  5596
1654  5449
1655  5485
1656  5569
1657  5381
1658  5536
1659  5533
1660  5447
1661  5536
1662  5574
1663  5552
1664  5516
1665  5380
1666  5591
1667  5485
1668  5457
1669  5513
1670  5531
1671  5570
1672  5394
1673  5440
1674  5494
1675  5461
1676  5498
1677  5457
1678  5507
1679  5452
1680  5608
1681  5433
1682  5421
1683  5550
1684  5514
1685  5600
1686  5466
1687  5531
1688  5475
1689  5457
1690  5479
1691  5499
1692  5588
1693  5427
1694  5344
1695  5394
1696  5396
1697  5580
1698  5569
1699  5591
1700  5380
1701  5456
1702  5581
1703  5531
1704  5462
1705  5557
1706  5419
1707  5462
1708  5495
1709  5572
1710  5455
1711  5539
1712  5517
1713  5564
1714  5558
1715  5470
1716  5473
1717  5562
1718  5599
1719  5479
1720  5355
1721  5463
1722  5428
1723  5494
1724  5531
1725  5450
1726  5530
1727  5587
1728  5604
1729  5495
1730  5342
1731  5516
1732  5479
1733  5384
1734  5428
1735  5461
1736  5419
1737  5483
1738  5357
1739  5416
1740  5502
1741  5492
1742  5444
1743  5485
1744  5467
1745  5534
1746  5456
1747  5386
1748  5373
1749  5453
1750  5372
1751  5430
1752  5463
1753  5554
1754  5324
1755  5456
1756  5534
1757  5503
1758  5451
1759  5549
1760  5434
1761  5612
1762  5515
1763  5535
1764  5552
1765  5480
1766  5417
1767  5503
1768  5431
1769  5492
1770  5405
1771  5518
1772  5558
1773  5499
1774  5557
1775  5482
1776  5347
1777  5599
1778  5461
1779  5451
1780  5580
1781  5559
1782  5643
1783  5526
1784  5490
1785  5396
1786  5447
1787  5444
1788  5542
1789  5480
1790  5520
1791  5390
1792  5278
1793  5446
1794  5507
1795  5476
1796  5498
1797  5540
1798  5472
1799  5337
1800  5436
1801  5479
1802  5590
1803  5537
1804  5414
1805  5424
1806  5533
1807  5481
1808  5475
1809  5542
1810  5553
1811  5578
1812  5399
1813  5465
1814  5403
1815  5485
1816  5503
1817  5431
1818  5399
1819  5401
1820  5551
1821  5460
1822  5428
1823  5448
1824  5531
1825  5392
1826  5469
1827  5524
1828  5401
1829  5543
1830  5494
1831  5588
1832  5409
1833  5540
1834  5696
1835  5441
1836  5550
1837  5447
1838  5552
1839  5494
1840  5418
1841  5520
1842  5418
1843  5419
1844  5603
1845  5429
1846  5593
1847  5443
1848  5389
1849  5491
1850  5474
1851  5571
1852  5432
1853  5366
1854  5359
1855  5465
1856  5453
1857  5529
1858  5378
1859  5453
1860  5453
1861  5530
1862  5501
1863  5575
1864  5473
1865  5451
1866  5573
1867  5349
1868  5430
1869  5481
1870  5477
1871  5472
1872  5513
1873  5532
1874  5453
1875  5423
1876  5441
1877  5605
1878  5481
1879  5353
1880  5420
1881  5568
1882  5463
1883  5473
1884  5498
1885  5429
1886  5462
1887  5502
1888  5550
1889  5499
1890  5441
1891  5469
1892  5513
1893  5449
1894  5470
1895  5406
1896  5573
1897  5505
1898  5517
1899  5379
1900  5434
1901  5469
1902  5489
1903  5614
1904  5367
1905  5362
1906  5454
1907  5405
1908  5484
1909  5531
1910  5486
1911  5477
1912  5437
1913  5557
1914  5483
1915  5531
1916  5453
1917  5541
1918  5531
1919  5297
1920  5441
1921  5456
1922  5569
1923  5484
1924  5548
1925  5572
1926  5418
1927  5507
1928  5348
1929  5516
1930  5415
1931  5457
1932  5614
1933  5561
1934  5555
1935  5515
1936  5453
1937  5461
1938  5464
1939  5430
1940  5494
1941  5568
1942  5457
1943  5548
1944  5449
1945  5503
1946  5602
1947  5543
1948  5511
1949  5455
1950  5457
1951  5440
1952  5446
1953  5590
1954  5457
1955  5429
1956  5623
1957  5413
1958  5589
1959  5378
1960  5476
1961  5472
1962  5427
1963  5494
1964  5531
1965  5509
1966  5506
1967  5410
1968  5525
1969  5394
1970  5428
1971  5388
1972  5382
1973  5495
1974  5501
1975  5449
1976  5536
1977  5423
1978  5441
1979  5370
1980  5380
1981  5489
1982  5428
1983  5482
1984  5539
1985  5455
1986  5368
1987  5483
1988  5314
1989  5468
1990  5626
1991  5370
1992  5518
1993  5450
1994  5414
1995  5557
1996  5384
1997  5447
1998  5487
1999  5505
2000  5450
2001  5480
2002  5483
2003  5342
2004  5553
2005  5491
2006  5368
2007  5538
2008  5461
2009  5455
2010  5437
2011  5607
2012  5509
2013  5465
2014  5397
2015  5610
2016  5482
2017  5578
2018  5542
2019  5485
2020  5430
2021  5484
2022  5489
2023  5444
2024  5484
2025  5456
2026  5566
2027  5471
2028  5438
2029  5499
2030  5606
2031  5547
2032  5522
2033  5512
2034  5323
2035  5618
2036  5706
2037  5552
2038  5535
2039  5552
2040  5402
2041  5466
2042  5441
2043  5487
2044  5501
2045  5512
2046  5374
2047  5485
2048  5511
2049  5441
2050  5533
2051  5460
2052  5492
2053  5372
2054  5516
2055  5385
2056  5466
2057  5490
2058  5355
2059  5456
2060  5588
2061  5561
2062  5560
2063  5613
2064  5426
2065  5411
2066  5526
2067  5513
2068  5381
2069  5617
2070  5512
2071  5641
2072  5438
2073  5420
2074  5511
2075  5496
2076  5496
2077  5510
2078  5554
2079  5488
2080  5385
2081  5486
2082  5484
2083  5468
2084  5532
2085  5397
2086  5404
2087  5452
2088  5342
2089  5395
2090  5435
2091  5554
2092  5460
2093  5539
2094  5612
2095  5538
2096  5409
2097  5530
2098  5599
2099  5528
2100  5413
2101  5530
2102  5566
2103  5491
2104  5507
2105  5529
2106  5543
2107  5511
2108  5445
2109  5621
2110  5454
2111  5515
2112  5552
2113  5596
2114  5435
2115  5419
2116  5478
2117  5553
2118  5570
2119  5475
2120  5470
2121  5473
2122  5504
2123  5484
2124  5492
2125  5491
2126  5448
2127  5501
2128  5489
2129  5577
2130  5527
2131  5527
2132  5525
2133  5571
2134  5542
2135  5602
2136  5500
2137  5525
2138  5419
2139  5478
2140  5658
2141  5367
2142  5379
2143  5520
2144  5480
2145  5540
2146  5633
2147  5548
2148  5529
2149  5484
2150  5531
2151  5522
2152  5493
2153  5552
2154  5492
2155  5461
2156  5469
2157  5393
2158  5393
2159  5615
2160  5497
2161  5478
2162  5496
2163  5506
2164  5542
2165  5392
2166  5472
2167  5479
2168  5441
2169  5603
2170  5601
2171  5516
2172  5531
2173  5437
2174  5447
2175  5654
2176  5618
2177  5383
2178  5454
2179  5440
2180  5460
2181  5616
2182  5435
2183  5515
2184  5463
2185  5520
2186  5478
2187  5586
2188  5253
2189  5421
2190  5612
2191  5461
2192  5350
2193  5428
2194  5522
2195  5317
2196  5465
2197  5580
2198  5610
2199  5623
2200  5489
2201  5512
2202  5455
2203  5428
2204  5466
2205  5502
2206  5512
2207  5484
2208  5394
2209  5499
2210  5494
2211  5369
2212  5445
2213  5390
2214  5538
2215  5482
2216  5490
2217  5466
2218  5508
2219  5445
2220  5437
2221  5569
2222  5534
2223  5356
2224  5482
2225  5419
2226  5533
2227  5543
2228  5479
2229  5564
2230  5458
2231  5516
2232  5545
2233  5447
2234  5414
2235  5457
2236  5484
2237  5431
2238  5352
2239  5379
2240  5622
2241  5466
2242  5376
2243  5373
2244  5532
2245  5488
2246  5493
2247  5354
2248  5380
2249  5469
2250  5532
2251  5609
2252  5478
2253  5586
2254  5472
2255  5420
2256  5552
2257  5408
2258  5531
2259  5271
2260  5604
2261  5522
2262  5593
2263  5496
2264  5533
2265  5404
2266  5509
2267  5682
2268  5376
2269  5479
2270  5418
2271  5517
2272  5399
2273  5637
2274  5620
2275  5466
2276  5593
2277  5516
2278  5551
2279  5500
2280  5542
2281  5467
2282  5406
2283  5576
2284  5559
2285  5312
2286  5418
2287  5538
2288  5483
2289  5538
2290  5471
2291  5503
2292  5409
2293  5388
2294  5500
2295  5454
2296  5572
2297  5344
2298  5601
2299  5597
2300  5382
2301  5539
2302  5352
2303  5313
2304  5578
2305  5468
2306  5435
2307  5543
2308  5560
2309  5626
2310  5453
2311  5533
2312  5453
2313  5515
2314  5443
2315  5338
2316  5566
2317  5418
2318  5454
2319  5435
2320  5473
2321  5431
2322  5444
2323  5513
2324  5573
2325  5543
2326  5519
2327  5425
2328  5408
2329  5448
2330  5463
2331  5521
2332  5527
2333  5545
2334  5449
2335  5464
2336  5507
2337  5371
2338  5562
2339  5658
2340  5537
2341  5445
2342  5390
2343  5400
2344  5447
2345  5442
2346  5491
2347  5510
2348  5576
2349  5528
2350  5557
2351  5391
2352  5463
2353  5471
2354  5644
2355  5408
2356  5353
2357  5478
2358  5415
2359  5394
2360  5381
2361  5517
2362  5434
2363  5580
2364  5580
2365  5499
2366  5417
2367  5510
2368  5488
2369  5496
2370  5327
2371  5560
2372  5456
2373  5548
2374  5481
2375  5462
2376  5560
2377  5443
2378  5473
2379  5588
2380  5491
2381  5482
2382  5392
2383  5444
2384  5489
2385  5441
2386  5496
2387  5384
2388  5435
2389  5527
2390  5397
2391  5448
2392  5567
2393  5395
2394  5449
2395  5454
2396  5443
2397  5486
2398  5358
2399  5591
2400  5483
2401  5537
2402  5556
2403  5554
2404  5532
2405  5493
2406  5385
2407  5422
2408  5490
2409  5569
2410  5601
2411  5447
2412  5471
2413  5426
2414  5493
2415  5514
2416  5534
2417  5622
2418  5477
2419  5562
2420  5600
2421  5569
2422  5548
2423  5412
2424  5577
2425  5452
2426  5567
2427  5278
2428  5597
2429  5475
2430  5462
2431  5508
2432  5414
2433  5412
2434  5494
2435  5394
2436  5441
2437  5525
2438  5667
2439  5534
2440  5441
2441  5397
2442  5493
2443  5439
2444  5511
2445  5504
2446  5516
2447  5562
2448  5423
2449  5447
2450  5559
2451  5483
2452  5487
2453  5449
2454  5501
2455  5541
2456  5643
2457  5440
2458  5497
2459  5482
2460  5430
2461  5534
2462  5625
2463  5506
2464  5461
2465  5508
2466  5388
2467  5498
2468  5487
2469  5597
2470  5590
2471  5508
2472  5466
2473  5436
2474  5391
2475  5524
2476  5396
2477  5386
2478  5485
2479  5468
2480  5480
2481  5417
2482  5681
2483  5543
2484  5508
2485  5494
2486  5584
2487  5458
2488  5543
2489  5509
2490  5486
2491  5441
2492  5540
2493  5564
2494  5509
2495  5608
2496  5549
2497  5589
2498  5427
2499  5584
2500  5416
2501  5524
2502  5530
2503  5541
2504  5549
2505  5425
2506  5456
2507  5575
2508  5419
2509  5545
2510  5407
2511  5424
2512  5515
2513  5560
2514  5480
2515  5602
2516  5468
2517  5449
2518  5507
2519  5504
2520  5531
2521  5564
2522  5538
2523  5562
2524  5390
2525  5422
2526  5453
2527  5409
2528  5413
2529  5361
2530  5485
2531  5365
2532  5518
2533  5561
2534  5421
2535  5548
2536  5368
2537  5551
2538  5515
2539  5401
2540  5534
2541  5481
2542  5394
2543  5520
2544  5511
2545  5396
2546  5571
2547  5415
2548  5510
2549  5560
2550  5447
2551  5423
2552  5438
2553  5581
2554  5517
2555  5417
2556  5545
2557  5357
2558  5609
2559  5438
2560  5459
2561  5387
2562  5552
2563  5377
2564  5495
2565  5491
2566  5448
2567  5590
2568  5486
2569  5661
2570  5607
2571  5383
2572  5418
2573  5485
2574  5584
2575  5396
2576  5609
2577  5485
2578  5464
2579  5410
2580  5512
2581  5470
2582  5516
2583  5527
2584  5510
2585  5567
2586  5443
2587  5285
2588  5553
2589  5498
2590  5482
2591  5529
2592  5631
2593  5552
2594  5349
2595  5348
2596  5386
2597  5541
2598  5455
2599  5413
2600  5540
2601  5551
2602  5408
2603  5391
2604  5548
2605  5505
2606  5515
2607  5509
2608  5411
2609  5533
2610  5432
2611  5322
2612  5526
2613  5338
2614  5588
2615  5555
2616  5532
2617  5459
2618  5518
2619  5406
2620  5346
2621  5477
2622  5567
2623  5494
2624  5416
2625  5445
2626  5501
2627  5301
2628  5404
2629  5464
2630  5419
2631  5451
2632  5525
2633  5459
2634  5670
2635  5409
2636  5441
2637  5520
2638  5478
2639  5523
2640  5443
2641  5515
2642  5469
2643  5600
2644  5399
2645  5402
2646  5460
2647  5498
2648  5354
2649  5515
2650  5495
2651  5568
2652  5601
2653  5524
2654  5402
2655  5465
2656  5527
2657  5497
2658  5484
2659  5641
2660  5418
2661  5479
2662  5503
2663  5460
2664  5425
2665  5435
2666  5479
2667  5574
2668  5461
2669  5559
2670  5467
2671  5494
2672  5451
2673  5501
2674  5672
2675  5516
2676  5376
2677  5483
2678  5533
2679  5565
2680  5503
2681  5492
2682  5441
2683  5478
2684  5396
2685  5401
2686  5454
2687  5528
2688  5609
2689  5367
2690  5466
2691  5522
2692  5333
2693  5451
2694  5432
2695  5484
2696  5460
2697  5418
2698  5512
2699  5573
2700  5503
2701  5445
2702  5465
2703  5439
2704  5502
2705  5418
2706  5445
2707  5449
2708  5496
2709  5457
2710  5436
2711  5503
2712  5559
2713  5532
2714  5595
2715  5595
2716  5476
2717  5427
2718  5445
2719  5493
2720  5456
2721  5581
2722  5480
2723  5593
2724  5640
2725  5514
2726  5624
2727  5484
2728  5391
2729  5504
2730  5581
2731  5487
2732  5586
2733  5455
2734  5506
2735  5563
2736  5463
2737  5455
2738  5413
2739  5545
2740  5566
2741  5492
2742  5467
2743  5537
2744  5508
2745  5543
2746  5327
2747  5448
2748  5476
2749  5525
2750  5414
2751  5386
2752  5574
2753  5392
2754  5436
2755  5535
2756  5307
2757  5372
2758  5505
2759  5361
2760  5618
2761  5534
2762  5513
2763  5528
2764  5528
2765  5481
2766  5536
2767  5535
2768  5503
2769  5528
2770  5521
2771  5486
2772  5498
2773  5500
2774  5451
2775  5414
2776  5472
2777  5440
2778  5502
2779  5590
2780  5428
2781  5439
2782  5441
2783  5529
2784  5556
2785  5381
2786  5461
2787  5450
2788  5595
2789  5505
2790  5375
2791  5584
2792  5374
2793  5516
2794  5511
2795  5527
2796  5479
2797  5607
2798  5614
2799  5422
2800  5521
2801  5449
2802  5485
2803  5377
2804  5557
2805  5463
2806  5462
2807  5407
2808  5415
2809  5529
2810  5476
2811  5549
2812  5566
2813  5406
2814  5356
2815  5522
2816  5508
2817  5603
2818  5424
2819  5489
2820  5353
2821  5425
2822  5369
2823  5498
2824  5514
2825  5523
2826  5542
2827  5372
2828  5594
2829  5390
2830  5474
2831  5453
2832  5552
2833  5502
2834  5627
2835  5569
2836  5496
2837  5517
2838  5510
2839  5476
2840  5521
2841  5538
2842  5452
2843  5563
2844  5531
2845  5552
2846  5392
2847  5422
2848  5534
2849  5473
2850  5430
2851  5640
2852  5541
2853  5423
2854  5529
2855  5588
2856  5440
2857  5546
2858  5427
2859  5581
2860  5482
2861  5480
2862  5443
2863  5472
2864  5534
2865  5441
2866  5323
2867  5481
2868  5326
2869  5410
2870  5518
2871  5539
2872  5608
2873  5634
2874  5314
2875  5414
2876  5421
2877  5464
2878  5436
2879  5535
2880  5523
2881  5610
2882  5415
2883  5462
2884  5460
2885  5499
2886  5516
2887  5527
2888  5460
2889  5495
2890  5395
2891  5500
2892  5467
2893  5498
2894  5392
2895  5470
2896  5469
2897  5364
2898  5498
2899  5612
2900  5378
2901  5530
2902  5499
2903  5495
2904  5556
2905  5395
2906  5410
2907  5588
2908  5616
2909  5503
2910  5516
2911  5533
2912  5486
2913  5540
2914  5529
2915  5495
2916  5516
2917  5484
2918  5445
2919  5509
2920  5466
2921  5454
2922  5656
2923  5319
2924  5547
2925  5469
2926  5443
2927  5457
2928  5535
2929  5529
2930  5599
2931  5657
2932  5311
2933  5394
2934  5521
2935  5475
2936  5417
2937  5466
2938  5571
2939  5393
2940  5377
2941  5447
2942  5485
2943  5365
2944  5447
2945  5403
2946  5508
2947  5528
2948  5493
2949  5584
2950  5501
2951  5571
2952  5499
2953  5499
2954  5492
2955  5444
2956  5449
2957  5547
2958  5516
2959  5472
2960  5469
2961  5459
2962  5463
2963  5400
2964  5456
2965  5561
2966  5467
2967  5510
2968  5562
2969  5459
2970  5654
2971  5594
2972  5488
2973  5525
2974  5530
2975  5448
2976  5566
2977  5453
2978  5586
2979  5466
2980  5443
2981  5441
2982  5615
2983  5480
2984  5455
2985  5530
2986  5387
2987  5449
2988  5526
2989  5568
2990  5582
2991  5539
2992  5555
2993  5410
2994  5587
2995  5475
2996  5521
2997  5558
2998  5450
2999  5486
3000  5407
3001  5438
3002  5445
3003  5436
3004  5376
3005  5438
3006  5536
3007  5425
3008  5378
3009  5352
3010  5518
3011  5345
3012  5528
3013  5518
3014  5386
3015  5518
3016  5573
3017  5516
3018  5464
3019  5714
3020  5510
3021  5637
3022  5327
3023  5447
3024  5470
3025  5389
3026  5429
3027  5516
3028  5411
3029  5505
3030  5352
3031  5652
3032  5572
3033  5406
3034  5543
3035  5426
3036  5516
3037  5426
3038  5506
3039  5448
3040  5452
3041  5548
3042  5529
3043  5364
3044  5478
3045  5652
3046  5564
3047  5524
3048  5529
3049  5526
3050  5453
3051  5485
3052  5571
3053  5351
3054  5549
3055  5575
3056  5406
3057  5352
3058  5343
3059  5471
3060  5515
3061  5460
3062  5491
3063  5557
3064  5410
3065  5375
3066  5467
3067  5552
3068  5523
3069  5505
3070  5473
3071  5607
3072  5377
3073  5444
3074  5420
3075  5565
3076  5538
3077  5400
3078  5476
3079  5485
3080  5609
3081  5556
3082  5536
3083  5632
3084  5551
3085  5415
3086  5481
3087  5584
3088  5551
3089  5480
3090  5446
3091  5603
3092  5580
3093  5468
3094  5385
3095  5433
3096  5574
3097  5599
3098  5529
3099  5324
3100  5356
3101  5351
3102  5603
3103  5486
3104  5340
3105  5548
3106  5507
3107  5361
3108  5395
3109  5428
3110  5627
3111  5488
3112  5515
3113  5524
3114  5430
3115  5474
3116  5458
3117  5582
3118  5695
3119  5469
3120  5519
3121  5499
3122  5507
3123  5510
3124  5470
3125  5578
3126  5526
3127  5563
3128  5497
3129  5431
3130  5513
3131  5460
3132  5393
3133  5551
3134  5545
3135  5533
3136  5311
3137  5542
3138  5450
3139  5438
3140  5473
3141  5672
3142  5385
3143  5463
3144  5482
3145  5553
3146  5466
3147  5473
3148  5472
3149  5532
3150  5424
3151  5480
3152  5539
3153  5388
3154  5556
3155  5518
3156  5501
3157  5469
3158  5525
3159  5403
3160  5477
3161  5553
3162  5488
3163  5548
3164  5556
3165  5579
3166  5519
3167  5588
3168  5615
3169  5518
3170  5416
3171  5483
3172  5484
3173  5344
3174  5552
3175  5422
3176  5501
3177  5369
3178  5407
3179  5473
3180  5555
3181  5440
3182  5517
3183  5468
3184  5467
3185  5513
3186  5337
3187  5471
3188  5590
3189  5439
3190  5294
3191  5524
3192  5452
3193  5564
3194  5513
3195  5493
3196  5468
3197  5514
3198  5654
3199  5540
3200  5463
3201  5359
3202  5415
3203  5442
3204  5497
3205  5524
3206  5530
3207  5500
3208  5448
3209  5515
3210  5546
3211  5558
3212  5559
3213  5640
3214  5480
3215  5461
3216  5457
3217  5586
3218  5478
3219  5469
3220  5460
3221  5516
3222  5571
3223  5561
3224  5372
3225  5477
3226  5494
3227  5562
3228  5430
3229  5361
3230  5503
3231  5634
3232  5467
3233  5560
3234  5574
3235  5519
3236  5436
3237  5422
3238  5412
3239  5610
3240  5479
3241  5549
3242  5514
3243  5391
3244  5470
3245  5575
3246  5563
3247  5453
3248  5459
3249  5444
3250  5656
3251  5551
3252  5500
3253  5462
3254  5352
3255  5488
3256  5392
3257  5555
3258  5495
3259  5437
3260  5498
3261  5613
3262  5541
3263  5400
3264  5533
3265  5433
3266  5434
3267  5496
3268  5419
3269  5477
3270  5432
3271  5484
3272  5620
3273  5583
3274  5471
3275  5494
3276  5507
3277  5409
3278  5586
3279  5674
3280  5487
3281  5663
3282  5517
3283  5468
3284  5452
3285  5365
3286  5516
3287  5507
3288  5404
3289  5421
3290  5603
3291  5548
3292  5416
3293  5536
3294  5396
3295  5422
3296  5516
3297  5530
3298  5648
3299  5491
3300  5478
3301  5418
3302  5493
3303  5553
3304  5511
3305  5601
3306  5583
3307  5282
3308  5420
3309  5417
3310  5481
3311  5583
3312  5433
3313  5326
3314  5473
3315  5438
3316  5378
3317  5460
3318  5501
3319  5486
3320  5641
3321  5462
3322  5505
3323  5416
3324  5509
3325  5486
3326  5520
3327  5428
3328  5476
3329  5519
3330  5504
3331  5520
3332  5525
3333  5446
3334  5500
3335  5472
3336  5429
3337  5487
3338  5543
3339  5632
3340  5589
3341  5534
3342  5326
3343  5469
3344  5510
3345  5590
3346  5534
3347  5617
3348  5574
3349  5594
3350  5560
3351  5508
3352  5347
3353  5636
3354  5565
3355  5489
3356  5437
3357  5463
3358  5567
3359  5577
3360  5514
3361  5636
3362  5470
3363  5608
3364  5487
3365  5434
3366  5367
3367  5541
3368  5495
3369  5540
3370  5429
3371  5443
3372  5559
3373  5585
3374  5536
3375  5479
3376  5552
3377  5715
3378  5389
3379  5529
3380  5393
3381  5562
3382  5329
3383  5427
3384  5424
3385  5445
3386  5601
3387  5433
3388  5409
3389  5437
3390  5380
3391  5525
3392  5672
3393  5600
3394  5504
3395  5502
3396  5477
3397  5539
3398  5535
3399  5600
3400  5469
3401  5466
3402  5577
3403  5505
3404  5513
3405  5502
3406  5480
3407  5448
3408  5604
3409  5465
3410  5522
3411  5435
3412  5363
3413  5526
3414  5523
3415  5344
3416  5502
3417  5544
3418  5509
3419  5463
3420  5409
3421  5528
3422  5571
3423  5495
3424  5545
3425  5450
3426  5471
3427  5492
3428  5497
3429  5423
3430  5610
3431  5389
3432  5572
3433  5465
3434  5499
3435  5386
3436  5559
3437  5468
3438  5589
3439  5468
3440  5466
3441  5473
3442  5622
3443  5542
3444  5599
3445  5619
3446  5525
3447  5558
3448  5521
3449  5509
3450  5407
3451  5570
3452  5476
3453  5635
3454  5591
3455  5453
3456  5501
3457  5426
3458  5524
3459  5507
3460  5460
3461  5477
3462  5470
3463  5474
3464  5411
3465  5379
3466  5489
3467  5585
3468  5446
3469  5528
3470  5409
3471  5598
3472  5430
3473  5398
3474  5642
3475  5478
3476  5432
3477  5395
3478  5583
3479  5632
3480  5520
3481  5370
3482  5377
3483  5410
3484  5527
3485  5597
3486  5472
3487  5487
3488  5452
3489  5300
3490  5114
3491  4795
3492  4571
3493  4000
3494  3393
3495  2972
3496  2373
3497  2101
3498  1747
3499  1560
3500  1360
3501  1194
3502  1088
3503  895
3504  763
3505  595
3506  455
3507  352
3508  206
3509  139
3510  103
3511  76
3512  45
3513  36
3514  19
3515  16
3516  19
3517  10
3518  7
3519  8
3520  6
3521  3
3522  5
3523  1
3524  1
3525  0
3526  0
3527  0
3528  0
3529  0
3530  0
3531  0
3532  0
3533  0
3534  0
3535  0
3536  0
3537  0
3538  0
3539  0
3540  0
3541  0
3542  0
3543  0
3544  0
3545  0
3546  0
3547  0
3548  0
3549  0
3550  0
3551  0
3552  0
3553  0
3554  0
3555  0
3556  0
3557  0
3558  0
3559  0
3560  0
3561  0
3562  0
3563  0
3564  0
3565  0
3566  0
3567  0
3568  0
3569  0
3570  0
3571  0
3572  0
3573  0
3574  0
3575  0
3576  0
3577  0
3578  0
3579  0
3580  0
3581  0
3582  0
3583  0
3584  0
3585  0
3586  0
3587  0
3588  0
3589  0
3590  0
3591  0
3592  0
3593  0
3594  0
3595  0
3596  0
3597  0
3598  0
3599  0
3600  0
3601  0
3602  0
3603  0
3604  0
3605  0
3606  0
3607  0
3608  0
3609  0
3610  0
3611  0
3612  0
3613  0
3614  0
3615  0
3616  0
3617  0
3618  0
3619  0
3620  0
3621  0
3622  0
3623  0
3624  0
3625  0
3626  0
3627  0
3628  0
3629  0
3630  0
3631  0
3632  0
3633  0
3634  0
3635  0
3636  0
3637  0
3638  0
3639  0
3640  0
3641  0
3642  0
3643  0
3644  0
3645  0
3646  0
3647  0
3648  0
3649  0
3650  0
3651  0
3652  0
3653  0
3654  0
3655  0
3656  0
3657  0
3658  0
3659  0
3660  0
3661  0
3662  0
3663  0
3664  0
3665  0
3666  0
3667  0
3668  0
3669  0
3670  0
3671  0
3672  0
3673  0
3674  0
3675  0
3676  0
3677  0
3678  0
3679  0
3680  0
3681  0
3682  0
3683  0
3684  0
3685  0
3686  0
3687  0
3688  0
3689  0
3690  0
3691  0
3692  0
3693  0
3694  0
3695  0
3696  0
3697  0
3698  0
3699  0
3700  0
3701  0
3702  0
3703  0
3704  0
3705  0
3706  0
3707  0
3708  0
3709  0
3710  0
3711  0
3712  0
3713  0
3714  0
3715  0
3716  0
3717  0
3718  0
3719  0
3720  0
3721  0
3722  0
3723  0
3724  0
3725  0
3726  0
3727  0
3728  0
3729  0
3730  0
3731  0
3732  0
3733  0
3734  0
3735  0
3736  0
3737  0
3738  0
3739  0
3740  0
3741  0
3742  0
3743  0
3744  0
3745  0
3746  0
3747  0
3748  0
3749  0
3750  0
3751  0
3752  0
3753  0
3754  0
3755  0
3756  0
3757  0
3758  0
3759  0
3760  0
3761  0
3762  0
3763  0
3764  0
3765  0
3766  0
3767  0
3768  0
3769  0
3770  0
3771  0
3772  0
3773  0
3774  0
3775  0
3776  0
3777  0
3778  0
3779  0
3780  0
3781  0
3782  0
3783  0
3784  0
3785  0
3786  0
3787  0
3788  0
3789  0
3790  0
3791  0
3792  0
3793  0
3794  0
3795  0
3796  0
3797  0
3798  0
3799  0
3800  0
3801  0
3802  0
3803  0
3804  0
3805  0
3806  0
3807  0
3808  0
3809  0
3810  0
3811  0
3812  0
3813  0
3814  0
3815  0
3816  0
3817  0
3818  0
3819  0
3820  0
3821  0
3822  0
3823  0
3824  0
3825  0
3826  0
3827  0
3828  0
3829  0
3830  0
3831  0
3832  0
3833  0
3834  0
3835  0
3836  0
3837  0
3838  0
3839  0
3840  0
3841  0
3842  0
3843  0
3844  0
3845  0
3846  0
3847  0
3848  0
3849  0
3850  0
3851  0
3852  0
3853  0
3854  0
3855  0
3856  0
3857  0
3858  0
3859  0
3860  0
3861  0
3862  0
3863  0
3864  0
3865  0
3866  0
3867  0
3868  0
3869  0
3870  0
3871  0
3872  0
3873  0
3874  0
3875  0
3876  0
3877  0
3878  0
3879  0
3880  0
3881  0
3882  0
3883  0
3884  0
3885  0
3886  0
3887  0
3888  0
3889  0
3890  0
3891  0
3892  0
3893  0
3894  0
3895  0
3896  0
3897  0
3898  0
3899  0
3900  0
3901  0
3902  0
3903  0
3904  0
3905  0
3906  0
3907  0
3908  0
3909  0
3910  0
3911  0
3912  0
3913  0
3914  0
3915  0
3916  0
3917  0
3918  0
3919  0
3920  0
3921  0
3922  0
3923  0
3924  0
3925  0
3926  0
3927  0
3928  0
3929  0
3930  0
3931  0
3932  0
3933  0
3934  0
3935  0
3936  0
3937  0
3938  0
3939  0
3940  0
3941  0
3942  0
3943  0
3944  0
3945  0
3946  0
3947  0
3948  0
3949  0
3950  0
3951  0
3952  0
3953  0
3954  0
3955  0
3956  0
3957  0
3958  0
3959  0
3960  0
3961  0
3962  0
3963  0
3964  0
3965  0
3966  0
3967  0
3968  0
3969  0
3970  0
3971  0
3972  0
3973  0
3974  0
3975  0
3976  0
3977  0
3978  0
3979  0
3980  0
3981  0
3982  0
3983  0
3984  0
3985  0
3986  0
3987  0
3988  0
3989  0
3990  0
3991  0
3992  0
3993  0
3994  0
3995  0
3996  0
3997  0
3998  0
3999  0
4000  0
4001  0
4002  0
4003  0
4004  0
4005  0
4006  0
4007  0
4008  0
4009  0
4010  0
4011  0
4012  0
4013  0
4014  0
4015  0
4016  0
4017  0
4018  0
4019  0
4020  0
4021  0
4022  0
4023  0
4024  0
4025  0
4026  0
4027  0
4028  0
4029  0
4030  0
4031  0
4032  0
4033  0
4034  0
4035  0
4036  0
4037  0
4038  0
4039  0
4040  0
4041  0
4042  0
4043  0
4044  0
4045  0
4046  0
4047  0
4048  0
4049  0
4050  0
4051  0
4052  0
4053  0
4054  0
4055  0
4056  0
4057  0
4058  0
4059  0
4060  0
4061  0
4062  0
4063  0
4064  0
4065  0
4066  0
4067  0
4068  0
4069  0
4070  0
4071  0
4072  0
4073  0
4074  0
4075  0
4076  0
4077  0
4078  0
4079  0
4080  0
4081  0
4082  0
4083  0
4084  0
4085  0
4086  0
4087  0
4088  0
4089  0
4090  0
4091  0
4092  0
4093  0
4094  0
4095  0
