0  0
1  0
2  0
3  0
4  0
5  0
6  0
7  0
8  0
9  0
10  0
11  0
12  0
13  0
14  0
15  0
16  0
17  0
18  0
19  0
20  0
21  0
22  0
23  0
24  0
25  0
26  0
27  0
28  0
29  0
30  0
31  0
32  0
33  0
34  0
35  0
36  0
37  0
38  0
39  0
40  0
41  0
42  0
43  0
44  0
45  0
46  0
47  0
48  0
49  0
50  0
51  0
52  0
53  0
54  0
55  0
56  0
57  0
58  0
59  0
60  0
61  0
62  0
63  0
64  0
65  0
66  0
67  0
68  0
69  0
70  0
71  0
72  0
73  0
74  0
75  0
76  0
77  0
78  0
79  0
80  0
81  0
82  0
83  0
84  0
85  0
86  0
87  0
88  0
89  0
90  0
91  0
92  0
93  0
94  0
95  0
96  0
97  0
98  0
99  0
100  0
101  0
102  0
103  0
104  0
105  0
106  0
107  0
108  0
109  0
110  0
111  0
112  0
113  0
114  0
115  0
116  0
117  0
118  0
119  0
120  0
121  0
122  0
123  0
124  0
125  0
126  0
127  0
128  0
129  0
130  0
131  0
132  0
133  0
134  0
135  0
136  0
137  0
138  0
139  0
140  0
141  0
142  0
143  0
144  0
145  0
146  0
147  0
148  0
149  0
150  0
151  0
152  0
153  0
154  0
155  0
156  0
157  0
158  0
159  0
160  0
161  0
162  0
163  0
164  0
165  0
166  0
167  0
168  0
169  0
170  0
171  0
172  0
173  0
174  0
175  0
176  0
177  0
178  0
179  0
180  0
181  0
182  0
183  0
184  0
185  0
186  0
187  0
188  0
189  0
190  0
191  0
192  0
193  0
194  0
195  0
196  0
197  0
198  0
199  0
200  0
201  0
202  0
203  0
204  0
205  0
206  0
207  0
208  0
209  0
210  0
211  0
212  0
213  0
214  0
215  0
216  0
217  0
218  0
219  0
220  0
221  0
222  0
223  0
224  0
225  0
226  0
227  0
228  0
229  0
230  0
231  0
232  0
233  0
234  0
235  0
236  0
237  0
238  0
239  0
240  0
241  0
242  0
243  0
244  0
245  0
246  0
247  0
248  0
249  0
250  0
251  0
252  0
253  0
254  0
255  0
256  0
257  0
258  0
259  0
260  0
261  0
262  0
263  0
264  0
265  0
266  0
267  0
268  0
269  0
270  0
271  0
272  0
273  0
274  0
275  0
276  0
277  0
278  0
279  0
280  0
281  0
282  0
283  0
284  0
285  0
286  0
287  0
288  0
289  0
290  0
291  0
292  0
293  0
294  0
295  0
296  0
297  0
298  0
299  0
300  0
301  0
302  0
303  0
304  0
305  0
306  0
307  0
308  0
309  0
310  0
311  0
312  0
313  0
314  0
315  0
316  0
317  0
318  0
319  0
320  0
321  0
322  0
323  0
324  0
325  0
326  0
327  0
328  0
329  0
330  0
331  0
332  0
333  0
334  0
335  0
336  0
337  0
338  0
339  0
340  0
341  0
342  0
343  0
344  0
345  0
346  0
347  0
348  0
349  0
350  0
351  0
352  0
353  0
354  0
355  0
356  0
357  0
358  0
359  0
360  0
361  0
362  0
363  0
364  0
365  0
366  0
367  0
368  0
369  0
370  0
371  0
372  0
373  0
374  0
375  0
376  0
377  0
378  0
379  0
380  0
381  0
382  0
383  0
384  0
385  0
386  0
387  0
388  0
389  0
390  0
391  0
392  0
393  0
394  0
395  0
396  0
397  0
398  0
399  0
400  0
401  0
402  0
403  0
404  0
405  0
406  0
407  0
408  0
409  0
410  0
411  0
412  0
413  0
414  0
415  0
416  0
417  0
418  0
419  0
420  0
421  0
422  0
423  0
424  0
425  0
426  0
427  0
428  0
429  0
430  0
431  0
432  0
433  0
434  0
435  0
436  0
437  0
438  0
439  0
440  0
441  0
442  0
443  0
444  0
445  0
446  0
447  0
448  0
449  0
450  0
451  0
452  0
453  0
454  0
455  0
456  0
457  0
458  0
459  0
460  0
461  0
462  0
463  0
464  0
465  0
466  0
467  0
468  0
469  0
470  0
471  0
472  0
473  0
474  0
475  0
476  0
477  0
478  0
479  0
480  0
481  0
482  0
483  0
484  0
485  0
486  0
487  0
488  0
489  0
490  0
491  0
492  0
493  0
494  0
495  0
496  0
497  0
498  0
499  0
500  0
501  0
502  0
503  0
504  0
505  0
506  0
507  0
508  0
509  0
510  0
511  0
512  0
513  0
514  0
515  0
516  0
517  0
518  0
519  0
520  0
521  0
522  0
523  0
524  0
525  0
526  0
527  0
528  0
529  0
530  0
531  0
532  0
533  0
534  0
535  0
536  0
537  0
538  0
539  0
540  0
541  0
542  0
543  0
544  0
545  0
546  0
547  0
548  0
549  0
550  0
551  0
552  0
553  0
554  0
555  0
556  0
557  0
558  0
559  0
560  0
561  0
562  0
563  0
564  0
565  0
566  0
567  0
568  0
569  0
570  0
571  0
572  0
573  0
574  0
575  0
576  0
577  0
578  0
579  0
580  0
581  0
582  0
583  0
584  0
585  0
586  0
587  0
588  0
589  0
590  0
591  0
592  0
593  0
594  0
595  0
596  0
597  0
598  0
599  0
600  0
601  0
602  0
603  0
604  0
605  0
606  0
607  0
608  0
609  0
610  0
611  0
612  0
613  0
614  0
615  0
616  0
617  0
618  0
619  0
620  0
621  0
622  0
623  0
624  0
625  0
626  0
627  0
628  0
629  0
630  0
631  0
632  0
633  0
634  0
635  0
636  0
637  0
638  0
639  0
640  0
641  0
642  0
643  0
644  0
645  0
646  0
647  0
648  0
649  0
650  0
651  0
652  0
653  0
654  0
655  0
656  0
657  0
658  0
659  0
660  0
661  0
662  0
663  0
664  0
665  0
666  0
667  0
668  0
669  0
670  0
671  0
672  0
673  0
674  0
675  0
676  0
677  0
678  0
679  0
680  0
681  0
682  0
683  0
684  0
685  0
686  0
687  0
688  0
689  0
690  0
691  0
692  0
693  0
694  0
695  0
696  0
697  0
698  0
699  0
700  0
701  0
702  0
703  0
704  0
705  0
706  0
707  0
708  0
709  0
710  0
711  0
712  0
713  0
714  0
715  0
716  0
717  0
718  0
719  0
720  0
721  0
722  0
723  0
724  0
725  0
726  0
727  0
728  0
729  0
730  0
731  0
732  0
733  0
734  0
735  0
736  0
737  0
738  0
739  0
740  0
741  0
742  0
743  0
744  0
745  0
746  0
747  0
748  0
749  0
750  0
751  0
752  0
753  0
754  0
755  0
756  0
757  0
758  0
759  0
760  0
761  0
762  0
763  0
764  0
765  0
766  0
767  0
768  0
769  0
770  0
771  0
772  0
773  0
774  0
775  0
776  0
777  0
778  0
779  0
780  0
781  0
782  0
783  0
784  0
785  0
786  0
787  0
788  0
789  0
790  0
791  0
792  0
793  0
794  0
795  0
796  0
797  0
798  0
799  0
800  0
801  0
802  0
803  0
804  0
805  0
806  0
807  0
808  0
809  0
810  0
811  0
812  0
813  0
814  0
815  0
816  0
817  0
818  0
819  0
820  0
821  0
822  0
823  0
824  0
825  0
826  0
827  0
828  0
829  0
830  0
831  0
832  0
833  0
834  0
835  0
836  0
837  0
838  0
839  0
840  0
841  0
842  0
843  0
844  0
845  0
846  0
847  0
848  0
849  0
850  0
851  0
852  0
853  0
854  0
855  0
856  0
857  0
858  0
859  0
860  0
861  0
862  0
863  0
864  0
865  0
866  0
867  0
868  0
869  0
870  0
871  0
872  0
873  0
874  0
875  0
876  0
877  0
878  0
879  0
880  0
881  0
882  0
883  0
884  0
885  0
886  0
887  0
888  0
889  0
890  0
891  0
892  0
893  0
894  0
895  0
896  0
897  0
898  0
899  0
900  0
901  0
902  0
903  0
904  0
905  0
906  0
907  0
908  0
909  0
910  0
911  0
912  0
913  0
914  0
915  0
916  0
917  0
918  0
919  0
920  0
921  0
922  0
923  0
924  0
925  0
926  0
927  0
928  0
929  0
930  0
931  0
932  0
933  0
934  0
935  0
936  0
937  0
938  0
939  0
940  0
941  0
942  0
943  0
944  0
945  0
946  0
947  0
948  0
949  0
950  0
951  0
952  0
953  0
954  0
955  0
956  0
957  0
958  0
959  0
960  0
961  0
962  0
963  0
964  0
965  0
966  0
967  0
968  0
969  0
970  0
971  0
972  0
973  0
974  0
975  0
976  0
977  0
978  0
979  0
980  0
981  0
982  0
983  0
984  0
985  0
986  0
987  0
988  0
989  0
990  0
991  0
992  0
993  0
994  0
995  0
996  0
997  0
998  0
999  0
1000  0
1001  0
1002  0
1003  0
1004  0
1005  0
1006  0
1007  0
1008  0
1009  0
1010  0
1011  0
1012  0
1013  0
1014  0
1015  0
1016  0
1017  0
1018  0
1019  0
1020  0
1021  0
1022  0
1023  0
1024  0
1025  0
1026  0
1027  0
1028  0
1029  0
1030  0
1031  0
1032  0
1033  0
1034  0
1035  0
1036  0
1037  0
1038  0
1039  0
1040  0
1041  0
1042  0
1043  0
1044  0
1045  0
1046  0
1047  0
1048  0
1049  0
1050  0
1051  0
1052  0
1053  0
1054  0
1055  0
1056  0
1057  0
1058  0
1059  0
1060  0
1061  0
1062  0
1063  0
1064  0
1065  0
1066  0
1067  0
1068  0
1069  0
1070  0
1071  0
1072  0
1073  0
1074  0
1075  0
1076  0
1077  0
1078  0
1079  0
1080  0
1081  0
1082  0
1083  0
1084  0
1085  0
1086  0
1087  0
1088  0
1089  0
1090  0
1091  0
1092  0
1093  0
1094  0
1095  0
1096  0
1097  0
1098  0
1099  0
1100  0
1101  0
1102  0
1103  0
1104  0
1105  0
1106  0
1107  0
1108  0
1109  0
1110  0
1111  0
1112  0
1113  0
1114  0
1115  0
1116  0
1117  0
1118  0
1119  0
1120  0
1121  0
1122  0
1123  0
1124  0
1125  0
1126  0
1127  0
1128  0
1129  0
1130  0
1131  0
1132  0
1133  0
1134  0
1135  0
1136  0
1137  0
1138  0
1139  0
1140  0
1141  0
1142  0
1143  0
1144  0
1145  0
1146  0
1147  0
1148  0
1149  0
1150  0
1151  0
1152  0
1153  0
1154  0
1155  0
1156  0
1157  0
1158  0
1159  0
1160  0
1161  0
1162  0
1163  0
1164  0
1165  0
1166  0
1167  0
1168  0
1169  0
1170  0
1171  0
1172  0
1173  0
1174  0
1175  0
1176  0
1177  0
1178  0
1179  0
1180  0
1181  0
1182  0
1183  0
1184  0
1185  0
1186  0
1187  0
1188  0
1189  0
1190  0
1191  0
1192  0
1193  0
1194  0
1195  0
1196  0
1197  0
1198  0
1199  0
1200  0
1201  0
1202  0
1203  0
1204  0
1205  0
1206  0
1207  0
1208  0
1209  0
1210  0
1211  0
1212  0
1213  0
1214  0
1215  0
1216  0
1217  0
1218  0
1219  0
1220  0
1221  0
1222  0
1223  0
1224  0
1225  0
1226  0
1227  0
1228  0
1229  0
1230  0
1231  0
1232  0
1233  0
1234  0
1235  0
1236  0
1237  0
1238  0
1239  0
1240  0
1241  0
1242  0
1243  0
1244  0
1245  0
1246  0
1247  0
1248  0
1249  0
1250  0
1251  0
1252  0
1253  0
1254  0
1255  0
1256  0
1257  0
1258  0
1259  0
1260  0
1261  0
1262  0
1263  0
1264  0
1265  0
1266  0
1267  0
1268  0
1269  0
1270  0
1271  0
1272  0
1273  0
1274  0
1275  0
1276  0
1277  0
1278  0
1279  0
1280  0
1281  0
1282  0
1283  0
1284  0
1285  0
1286  0
1287  0
1288  0
1289  0
1290  0
1291  0
1292  0
1293  0
1294  0
1295  0
1296  0
1297  0
1298  0
1299  0
1300  0
1301  0
1302  0
1303  0
1304  0
1305  0
1306  0
1307  0
1308  0
1309  0
1310  0
1311  0
1312  0
1313  0
1314  0
1315  0
1316  0
1317  0
1318  0
1319  0
1320  0
1321  0
1322  0
1323  0
1324  0
1325  0
1326  0
1327  0
1328  0
1329  0
1330  0
1331  0
1332  0
1333  0
1334  0
1335  0
1336  0
1337  0
1338  0
1339  0
1340  0
1341  0
1342  0
1343  0
1344  0
1345  0
1346  0
1347  0
1348  0
1349  0
1350  0
1351  0
1352  0
1353  0
1354  0
1355  0
1356  0
1357  0
1358  0
1359  0
1360  0
1361  0
1362  0
1363  0
1364  0
1365  0
1366  0
1367  0
1368  0
1369  0
1370  0
1371  0
1372  0
1373  0
1374  0
1375  0
1376  0
1377  0
1378  0
1379  0
1380  0
1381  0
1382  0
1383  0
1384  0
1385  0
1386  0
1387  0
1388  0
1389  0
1390  0
1391  0
1392  0
1393  0
1394  0
1395  0
1396  0
1397  0
1398  0
1399  0
1400  0
1401  0
1402  0
1403  0
1404  0
1405  0
1406  0
1407  0
1408  0
1409  0
1410  0
1411  0
1412  0
1413  0
1414  0
1415  0
1416  0
1417  0
1418  0
1419  0
1420  0
1421  0
1422  0
1423  0
1424  0
1425  0
1426  0
1427  0
1428  0
1429  0
1430  0
1431  0
1432  0
1433  0
1434  0
1435  0
1436  0
1437  0
1438  0
1439  0
1440  0
1441  0
1442  0
1443  0
1444  0
1445  0
1446  0
1447  0
1448  0
1449  0
1450  0
1451  0
1452  0
1453  0
1454  0
1455  0
1456  0
1457  0
1458  0
1459  0
1460  0
1461  0
1462  0
1463  0
1464  0
1465  0
1466  0
1467  0
1468  0
1469  0
1470  0
1471  0
1472  0
1473  0
1474  0
1475  0
1476  0
1477  0
1478  0
1479  0
1480  0
1481  0
1482  0
1483  0
1484  0
1485  0
1486  0
1487  0
1488  0
1489  0
1490  0
1491  0
1492  0
1493  0
1494  0
1495  0
1496  0
1497  0
1498  0
1499  0
1500  0
1501  0
1502  0
1503  0
1504  0
1505  0
1506  0
1507  0
1508  0
1509  0
1510  0
1511  0
1512  0
1513  0
1514  0
1515  0
1516  0
1517  0
1518  0
1519  0
1520  0
1521  0
1522  0
1523  0
1524  0
1525  0
1526  0
1527  0
1528  0
1529  0
1530  0
1531  0
1532  0
1533  0
1534  0
1535  0
1536  0
1537  0
1538  0
1539  0
1540  0
1541  0
1542  0
1543  0
1544  0
1545  0
1546  0
1547  0
1548  0
1549  0
1550  0
1551  0
1552  0
1553  0
1554  0
1555  0
1556  0
1557  0
1558  0
1559  0
1560  0
1561  0
1562  0
1563  0
1564  0
1565  0
1566  0
1567  0
1568  0
1569  0
1570  0
1571  0
1572  0
1573  0
1574  0
1575  0
1576  0
1577  0
1578  0
1579  0
1580  0
1581  0
1582  0
1583  0
1584  0
1585  0
1586  0
1587  0
1588  0
1589  0
1590  0
1591  0
1592  0
1593  0
1594  0
1595  0
1596  0
1597  0
1598  0
1599  0
1600  0
1601  0
1602  0
1603  0
1604  0
1605  0
1606  0
1607  0
1608  0
1609  0
1610  0
1611  0
1612  0
1613  0
1614  0
1615  0
1616  0
1617  0
1618  0
1619  0
1620  0
1621  0
1622  0
1623  0
1624  0
1625  0
1626  0
1627  0
1628  0
1629  0
1630  0
1631  0
1632  0
1633  0
1634  0
1635  0
1636  0
1637  0
1638  0
1639  0
1640  0
1641  0
1642  0
1643  0
1644  0
1645  0
1646  0
1647  0
1648  0
1649  0
1650  0
1651  0
1652  0
1653  0
1654  0
1655  0
1656  0
1657  0
1658  0
1659  0
1660  0
1661  0
1662  0
1663  0
1664  0
1665  0
1666  12
1667  266
1668  1058
1669  1623
1670  1663
1671  1644
1672  1606
1673  1558
1674  1492
1675  1463
1676  1370
1677  1324
1678  1320
1679  1206
1680  1151
1681  1160
1682  1104
1683  1062
1684  949
1685  883
1686  860
1687  902
1688  800
1689  791
1690  770
1691  749
1692  717
1693  703
1694  707
1695  638
1696  562
1697  601
1698  616
1699  570
1700  530
1701  530
1702  483
1703  453
1704  429
1705  416
1706  417
1707  428
1708  428
1709  409
1710  404
1711  374
1712  366
1713  334
1714  298
1715  329
1716  288
1717  293
1718  292
1719  280
1720  271
1721  225
1722  260
1723  235
1724  236
1725  240
1726  230
1727  215
1728  181
1729  221
1730  214
1731  189
1732  173
1733  188
1734  184
1735  173
1736  163
1737  157
1738  162
1739  163
1740  150
1741  158
1742  143
1743  125
1744  120
1745  146
1746  114
1747  138
1748  140
1749  129
1750  110
1751  110
1752  130
1753  118
1754  126
1755  108
1756  124
1757  125
1758  108
1759  118
1760  107
1761  113
1762  122
1763  111
1764  105
1765  103
1766  120
1767  106
1768  121
1769  109
1770  113
1771  123
1772  139
1773  131
1774  122
1775  123
1776  108
1777  142
1778  112
1779  135
1780  128
1781  134
1782  123
1783  142
1784  119
1785  137
1786  148
1787  108
1788  136
1789  166
1790  156
1791  180
1792  182
1793  156
1794  162
1795  175
1796  185
1797  170
1798  185
1799  194
1800  207
1801  229
1802  210
1803  205
1804  245
1805  275
1806  234
1807  257
1808  245
1809  271
1810  275
1811  293
1812  284
1813  283
1814  284
1815  306
1816  330
1817  345
1818  349
1819  345
1820  356
1821  369
1822  389
1823  371
1824  401
1825  384
1826  435
1827  422
1828  459
1829  471
1830  494
1831  471
1832  501
1833  549
1834  535
1835  527
1836  594
1837  604
1838  628
1839  617
1840  684
1841  635
1842  685
1843  716
1844  710
1845  783
1846  754
1847  766
1848  800
1849  856
1850  857
1851  871
1852  933
1853  960
1854  939
1855  1007
1856  987
1857  1085
1858  1032
1859  1057
1860  1153
1861  1191
1862  1154
1863  1139
1864  1220
1865  1156
1866  1269
1867  1256
1868  1292
1869  1322
1870  1357
1871  1375
1872  1493
1873  1509
1874  1461
1875  1561
1876  1565
1877  1648
1878  1629
1879  1748
1880  1812
1881  1700
1882  1912
1883  1782
1884  1857
1885  1900
1886  1924
1887  1929
1888  1974
1889  2030
1890  2083
1891  2125
1892  2190
1893  2211
1894  2348
1895  2270
1896  2363
1897  2359
1898  2366
1899  2400
1900  2354
1901  2504
1902  2502
1903  2561
1904  2647
1905  2750
1906  2660
1907  2766
1908  2749
1909  2747
1910  2793
1911  2938
1912  3078
1913  3005
1914  3040
1915  3039
1916  3109
1917  3012
1918  3126
1919  3161
1920  3165
1921  3279
1922  3241
1923  3318
1924  3368
1925  3442
1926  3486
1927  3569
1928  3547
1929  3489
1930  3571
1931  3651
1932  3723
1933  3575
1934  3748
1935  3692
1936  3853
1937  3823
1938  3927
1939  3848
1940  3922
1941  3847
1942  3907
1943  3998
1944  4092
1945  4036
1946  3986
1947  4128
1948  4004
1949  4171
1950  4135
1951  4227
1952  4310
1953  4390
1954  4267
1955  4288
1956  4318
1957  4310
1958  4398
1959  4476
1960  4342
1961  4538
1962  4383
1963  4587
1964  4585
1965  4468
1966  4656
1967  4641
1968  4551
1969  4751
1970  4564
1971  4697
1972  4578
1973  4707
1974  4740
1975  4677
1976  4882
1977  4656
1978  4763
1979  4813
1980  4808
1981  4792
1982  4717
1983  4786
1984  4848
1985  4910
1986  4829
1987  4826
1988  4825
1989  4862
1990  4743
1991  4967
1992  4940
1993  4920
1994  4834
1995  4819
1996  4971
1997  4976
1998  4837
1999  4812
2000  4871
2001  4891
2002  4761
2003  4905
2004  4777
2005  4859
2006  4689
2007  4990
2008  4982
2009  4800
2010  4877
2011  4684
2012  4853
2013  4828
2014  4769
2015  4858
2016  4962
2017  4743
2018  4645
2019  4792
2020  4711
2021  4693
2022  4682
2023  4549
2024  4632
2025  4749
2026  4742
2027  4695
2028  4546
2029  4538
2030  4563
2031  4593
2032  4635
2033  4580
2034  4552
2035  4551
2036  4498
2037  4444
2038  4509
2039  4529
2040  4438
2041  4380
2042  4538
2043  4474
2044  4364
2045  4387
2046  4408
2047  4350
2048  4379
2049  4399
2050  4268
2051  4338
2052  4307
2053  4243
2054  4245
2055  4236
2056  4155
2057  4236
2058  4051
2059  4077
2060  4010
2061  4027
2062  4000
2063  4108
2064  4140
2065  4060
2066  3832
2067  3973
2068  3961
2069  3837
2070  3902
2071  3996
2072  3806
2073  3855
2074  3870
2075  3832
2076  3795
2077  3764
2078  3769
2079  3580
2080  3632
2081  3628
2082  3644
2083  3598
2084  3483
2085  3407
2086  3635
2087  3553
2088  3500
2089  3568
2090  3580
2091  3524
2092  3484
2093  3492
2094  3307
2095  3340
2096  3340
2097  3272
2098  3244
2099  3208
2100  3263
2101  3364
2102  3214
2103  3107
2104  3042
2105  3178
2106  2956
2107  3179
2108  3071
2109  2951
2110  3131
2111  3032
2112  2965
2113  2975
2114  2891
2115  2868
2116  2809
2117  2840
2118  2758
2119  2850
2120  2863
2121  2790
2122  2752
2123  2755
2124  2714
2125  2650
2126  2640
2127  2656
2128  2758
2129  2600
2130  2632
2131  2552
2132  2584
2133  2513
2134  2524
2135  2511
2136  2533
2137  2414
2138  2432
2139  2376
2140  2421
2141  2414
2142  2330
2143  2328
2144  2420
2145  2411
2146  2306
2147  2225
2148  2277
2149  2178
2150  2208
2151  2184
2152  2237
2153  2134
2154  2173
2155  2194
2156  2120
2157  2060
2158  2072
2159  2037
2160  2131
2161  2100
2162  2054
2163  1973
2164  1969
2165  1975
2166  1908
2167  1926
2168  1917
2169  1881
2170  1952
2171  1862
2172  1833
2173  1772
2174  1837
2175  1787
2176  1850
2177  1813
2178  1771
2179  1714
2180  1714
2181  1671
2182  1668
2183  1658
2184  1707
2185  1741
2186  1584
2187  1639
2188  1613
2189  1645
2190  1605
2191  1582
2192  1530
2193  1524
2194  1556
2195  1460
2196  1487
2197  1497
2198  1502
2199  1509
2200  1458
2201  1442
2202  1410
2203  1397
2204  1466
2205  1377
2206  1350
2207  1343
2208  1333
2209  1374
2210  1316
2211  1271
2212  1298
2213  1252
2214  1259
2215  1291
2216  1201
2217  1221
2218  1258
2219  1228
2220  1162
2221  1154
2222  1194
2223  1206
2224  1154
2225  1174
2226  1174
2227  1191
2228  1174
2229  1131
2230  1143
2231  1126
2232  1112
2233  1097
2234  1054
2235  1007
2236  1062
2237  1055
2238  1000
2239  993
2240  1035
2241  980
2242  1016
2243  1021
2244  975
2245  978
2246  899
2247  982
2248  908
2249  890
2250  896
2251  928
2252  871
2253  865
2254  901
2255  852
2256  836
2257  878
2258  925
2259  870
2260  876
2261  845
2262  804
2263  829
2264  750
2265  813
2266  770
2267  816
2268  736
2269  760
2270  850
2271  763
2272  753
2273  739
2274  715
2275  753
2276  737
2277  701
2278  706
2279  711
2280  705
2281  698
2282  693
2283  669
2284  678
2285  665
2286  699
2287  680
2288  631
2289  635
2290  635
2291  680
2292  607
2293  644
2294  604
2295  598
2296  590
2297  584
2298  594
2299  566
2300  559
2301  603
2302  539
2303  585
2304  608
2305  547
2306  516
2307  569
2308  507
2309  545
2310  508
2311  527
2312  503
2313  471
2314  505
2315  523
2316  472
2317  516
2318  498
2319  476
2320  505
2321  485
2322  465
2323  461
2324  473
2325  487
2326  467
2327  458
2328  457
2329  424
2330  406
2331  417
2332  421
2333  395
2334  413
2335  412
2336  446
2337  422
2338  385
2339  385
2340  389
2341  361
2342  394
2343  383
2344  380
2345  395
2346  412
2347  367
2348  355
2349  366
2350  349
2351  387
2352  385
2353  373
2354  351
2355  358
2356  355
2357  338
2358  342
2359  335
2360  357
2361  292
2362  311
2363  317
2364  290
2365  310
2366  324
2367  305
2368  279
2369  302
2370  322
2371  285
2372  305
2373  309
2374  298
2375  288
2376  292
2377  289
2378  261
2379  265
2380  282
2381  301
2382  298
2383  266
2384  276
2385  286
2386  286
2387  256
2388  253
2389  270
2390  258
2391  278
2392  255
2393  249
2394  272
2395  230
2396  235
2397  239
2398  226
2399  254
2400  243
2401  251
2402  222
2403  190
2404  230
2405  203
2406  225
2407  219
2408  217
2409  212
2410  200
2411  208
2412  218
2413  203
2414  198
2415  219
2416  194
2417  210
2418  201
2419  186
2420  173
2421  206
2422  187
2423  187
2424  194
2425  199
2426  182
2427  204
2428  181
2429  219
2430  163
2431  183
2432  177
2433  192
2434  188
2435  175
2436  190
2437  185
2438  155
2439  157
2440  174
2441  166
2442  175
2443  139
2444  144
2445  158
2446  143
2447  160
2448  172
2449  169
2450  162
2451  145
2452  155
2453  147
2454  149
2455  163
2456  146
2457  140
2458  153
2459  144
2460  142
2461  144
2462  138
2463  149
2464  122
2465  132
2466  144
2467  144
2468  144
2469  115
2470  137
2471  144
2472  132
2473  135
2474  90
2475  133
2476  114
2477  119
2478  116
2479  128
2480  124
2481  134
2482  124
2483  113
2484  91
2485  111
2486  130
2487  117
2488  117
2489  103
2490  109
2491  101
2492  113
2493  105
2494  110
2495  106
2496  96
2497  111
2498  92
2499  107
2500  79
2501  103
2502  113
2503  90
2504  94
2505  94
2506  94
2507  101
2508  108
2509  107
2510  104
2511  73
2512  95
2513  99
2514  100
2515  96
2516  85
2517  96
2518  88
2519  86
2520  82
2521  84
2522  79
2523  81
2524  91
2525  84
2526  81
2527  74
2528  76
2529  96
2530  82
2531  73
2532  84
2533  71
2534  72
2535  69
2536  89
2537  71
2538  67
2539  73
2540  53
2541  65
2542  79
2543  77
2544  81
2545  86
2546  64
2547  80
2548  86
2549  66
2550  66
2551  86
2552  68
2553  55
2554  65
2555  77
2556  64
2557  68
2558  62
2559  69
2560  62
2561  69
2562  52
2563  52
2564  62
2565  69
2566  65
2567  61
2568  65
2569  92
2570  60
2571  62
2572  61
2573  60
2574  57
2575  66
2576  39
2577  48
2578  56
2579  64
2580  44
2581  48
2582  56
2583  50
2584  52
2585  62
2586  53
2587  59
2588  53
2589  48
2590  54
2591  39
2592  44
2593  39
2594  40
2595  42
2596  50
2597  47
2598  54
2599  34
2600  42
2601  45
2602  46
2603  43
2604  45
2605  41
2606  51
2607  51
2608  36
2609  48
2610  51
2611  37
2612  44
2613  44
2614  42
2615  34
2616  36
2617  30
2618  43
2619  34
2620  59
2621  33
2622  31
2623  41
2624  30
2625  43
2626  39
2627  42
2628  38
2629  42
2630  50
2631  38
2632  29
2633  38
2634  42
2635  31
2636  38
2637  35
2638  38
2639  34
2640  40
2641  31
2642  32
2643  33
2644  44
2645  33
2646  39
2647  44
2648  32
2649  35
2650  20
2651  41
2652  23
2653  35
2654  36
2655  42
2656  35
2657  33
2658  28
2659  23
2660  25
2661  27
2662  40
2663  27
2664  24
2665  33
2666  27
2667  24
2668  34
2669  21
2670  27
2671  26
2672  19
2673  32
2674  30
2675  27
2676  31
2677  32
2678  23
2679  28
2680  25
2681  27
2682  26
2683  26
2684  20
2685  29
2686  31
2687  31
2688  26
2689  24
2690  29
2691  20
2692  20
2693  12
2694  19
2695  33
2696  20
2697  16
2698  35
2699  29
2700  25
2701  19
2702  26
2703  26
2704  25
2705  26
2706  21
2707  22
2708  16
2709  23
2710  25
2711  6
2712  28
2713  17
2714  21
2715  24
2716  18
2717  22
2718  22
2719  15
2720  20
2721  29
2722  21
2723  26
2724  20
2725  14
2726  27
2727  21
2728  20
2729  20
2730  14
2731  22
2732  20
2733  19
2734  23
2735  24
2736  17
2737  11
2738  19
2739  22
2740  18
2741  17
2742  16
2743  27
2744  12
2745  20
2746  16
2747  18
2748  16
2749  25
2750  21
2751  17
2752  18
2753  17
2754  28
2755  18
2756  12
2757  17
2758  17
2759  22
2760  16
2761  13
2762  17
2763  14
2764  15
2765  15
2766  17
2767  15
2768  22
2769  16
2770  17
2771  21
2772  25
2773  15
2774  17
2775  14
2776  14
2777  20
2778  17
2779  19
2780  14
2781  11
2782  14
2783  20
2784  21
2785  19
2786  23
2787  15
2788  11
2789  14
2790  17
2791  23
2792  16
2793  16
2794  8
2795  14
2796  8
2797  8
2798  18
2799  10
2800  13
2801  14
2802  11
2803  15
2804  10
2805  11
2806  13
2807  9
2808  8
2809  24
2810  18
2811  14
2812  13
2813  13
2814  14
2815  19
2816  15
2817  12
2818  8
2819  9
2820  12
2821  18
2822  8
2823  8
2824  16
2825  20
2826  12
2827  10
2828  6
2829  16
2830  12
2831  13
2832  12
2833  15
2834  16
2835  15
2836  10
2837  16
2838  15
2839  10
2840  16
2841  10
2842  16
2843  11
2844  13
2845  9
2846  14
2847  11
2848  8
2849  10
2850  8
2851  10
2852  10
2853  8
2854  9
2855  15
2856  14
2857  13
2858  9
2859  12
2860  9
2861  14
2862  15
2863  8
2864  10
2865  8
2866  11
2867  10
2868  14
2869  14
2870  8
2871  8
2872  5
2873  10
2874  12
2875  12
2876  11
2877  10
2878  11
2879  9
2880  8
2881  13
2882  10
2883  9
2884  7
2885  4
2886  7
2887  9
2888  8
2889  11
2890  11
2891  6
2892  12
2893  11
2894  9
2895  6
2896  6
2897  8
2898  10
2899  10
2900  7
2901  5
2902  8
2903  4
2904  8
2905  6
2906  11
2907  11
2908  11
2909  5
2910  4
2911  13
2912  11
2913  10
2914  4
2915  6
2916  9
2917  5
2918  7
2919  10
2920  6
2921  9
2922  14
2923  7
2924  9
2925  13
2926  11
2927  6
2928  8
2929  6
2930  8
2931  6
2932  5
2933  9
2934  9
2935  7
2936  10
2937  5
2938  4
2939  6
2940  6
2941  6
2942  5
2943  7
2944  8
2945  9
2946  9
2947  9
2948  7
2949  6
2950  10
2951  3
2952  4
2953  7
2954  7
2955  8
2956  12
2957  6
2958  4
2959  10
2960  10
2961  10
2962  11
2963  5
2964  9
2965  8
2966  3
2967  8
2968  9
2969  7
2970  5
2971  2
2972  7
2973  11
2974  11
2975  3
2976  6
2977  7
2978  6
2979  5
2980  5
2981  8
2982  3
2983  6
2984  6
2985  7
2986  6
2987  7
2988  6
2989  9
2990  5
2991  5
2992  8
2993  2
2994  4
2995  4
2996  6
2997  9
2998  5
2999  2
3000  4
3001  2
3002  10
3003  5
3004  6
3005  8
3006  5
3007  6
3008  3
3009  3
3010  4
3011  9
3012  7
3013  5
3014  6
3015  3
3016  5
3017  2
3018  3
3019  7
3020  7
3021  3
3022  7
3023  4
3024  3
3025  7
3026  7
3027  5
3028  6
3029  3
3030  7
3031  4
3032  5
3033  10
3034  5
3035  6
3036  8
3037  5
3038  7
3039  6
3040  2
3041  3
3042  4
3043  6
3044  6
3045  3
3046  4
3047  7
3048  8
3049  9
3050  4
3051  2
3052  4
3053  6
3054  6
3055  5
3056  3
3057  5
3058  5
3059  6
3060  2
3061  6
3062  6
3063  5
3064  2
3065  6
3066  2
3067  3
3068  3
3069  5
3070  4
3071  2
3072  2
3073  3
3074  5
3075  6
3076  2
3077  5
3078  4
3079  4
3080  5
3081  7
3082  3
3083  6
3084  2
3085  7
3086  2
3087  4
3088  3
3089  7
3090  5
3091  3
3092  7
3093  5
3094  5
3095  2
3096  6
3097  4
3098  3
3099  3
3100  6
3101  1
3102  5
3103  2
3104  3
3105  3
3106  3
3107  1
3108  5
3109  4
3110  4
3111  4
3112  6
3113  3
3114  5
3115  4
3116  2
3117  3
3118  4
3119  5
3120  4
3121  2
3122  4
3123  1
3124  5
3125  4
3126  5
3127  4
3128  2
3129  3
3130  4
3131  0
3132  3
3133  1
3134  2
3135  3
3136  3
3137  4
3138  3
3139  1
3140  2
3141  3
3142  4
3143  1
3144  1
3145  4
3146  3
3147  1
3148  2
3149  2
3150  5
3151  2
3152  2
3153  5
3154  2
3155  7
3156  0
3157  2
3158  5
3159  1
3160  1
3161  4
3162  3
3163  5
3164  6
3165  3
3166  1
3167  2
3168  3
3169  3
3170  2
3171  2
3172  4
3173  2
3174  1
3175  1
3176  0
3177  5
3178  2
3179  2
3180  2
3181  1
3182  4
3183  2
3184  5
3185  2
3186  2
3187  4
3188  4
3189  2
3190  3
3191  2
3192  1
3193  2
3194  1
3195  4
3196  1
3197  3
3198  3
3199  0
3200  3
3201  3
3202  1
3203  6
3204  3
3205  1
3206  0
3207  3
3208  4
3209  3
3210  2
3211  2
3212  1
3213  2
3214  0
3215  4
3216  3
3217  4
3218  3
3219  3
3220  4
3221  5
3222  5
3223  2
3224  3
3225  3
3226  4
3227  2
3228  2
3229  1
3230  1
3231  2
3232  1
3233  1
3234  2
3235  3
3236  3
3237  2
3238  2
3239  1
3240  4
3241  1
3242  4
3243  1
3244  2
3245  2
3246  5
3247  4
3248  2
3249  2
3250  2
3251  5
3252  1
3253  5
3254  2
3255  3
3256  5
3257  0
3258  1
3259  2
3260  1
3261  2
3262  0
3263  4
3264  1
3265  2
3266  1
3267  1
3268  2
3269  4
3270  2
3271  2
3272  3
3273  2
3274  5
3275  0
3276  1
3277  2
3278  3
3279  4
3280  2
3281  4
3282  4
3283  0
3284  0
3285  3
3286  2
3287  3
3288  1
3289  2
3290  1
3291  3
3292  2
3293  2
3294  1
3295  3
3296  3
3297  2
3298  3
3299  0
3300  0
3301  1
3302  4
3303  1
3304  4
3305  0
3306  1
3307  4
3308  1
3309  1
3310  1
3311  1
3312  2
3313  5
3314  1
3315  4
3316  4
3317  2
3318  0
3319  2
3320  0
3321  3
3322  1
3323  0
3324  0
3325  2
3326  1
3327  1
3328  0
3329  0
3330  1
3331  3
3332  2
3333  2
3334  4
3335  0
3336  4
3337  3
3338  0
3339  1
3340  1
3341  0
3342  3
3343  1
3344  1
3345  2
3346  0
3347  1
3348  3
3349  1
3350  2
3351  1
3352  1
3353  1
3354  0
3355  3
3356  1
3357  3
3358  0
3359  1
3360  2
3361  2
3362  3
3363  0
3364  2
3365  3
3366  5
3367  1
3368  2
3369  1
3370  1
3371  2
3372  1
3373  1
3374  1
3375  0
3376  1
3377  2
3378  4
3379  4
3380  0
3381  0
3382  2
3383  2
3384  1
3385  0
3386  2
3387  0
3388  2
3389  1
3390  1
3391  1
3392  2
3393  2
3394  0
3395  1
3396  3
3397  2
3398  0
3399  0
3400  3
3401  1
3402  1
3403  1
3404  4
3405  1
3406  0
3407  0
3408  1
3409  1
3410  0
3411  0
3412  2
3413  2
3414  2
3415  1
3416  6
3417  0
3418  3
3419  3
3420  1
3421  3
3422  0
3423  2
3424  0
3425  1
3426  2
3427  3
3428  1
3429  3
3430  0
3431  0
3432  0
3433  2
3434  1
3435  2
3436  1
3437  1
3438  1
3439  1
3440  2
3441  1
3442  1
3443  1
3444  2
3445  1
3446  1
3447  1
3448  3
3449  2
3450  0
3451  1
3452  1
3453  1
3454  1
3455  3
3456  0
3457  1
3458  0
3459  0
3460  2
3461  1
3462  0
3463  1
3464  0
3465  2
3466  2
3467  0
3468  1
3469  1
3470  0
3471  2
3472  3
3473  2
3474  0
3475  2
3476  3
3477  0
3478  1
3479  2
3480  0
3481  1
3482  0
3483  2
3484  3
3485  2
3486  1
3487  0
3488  3
3489  1
3490  0
3491  1
3492  2
3493  0
3494  1
3495  0
3496  1
3497  2
3498  0
3499  1
3500  0
3501  2
3502  0
3503  2
3504  0
3505  3
3506  1
3507  1
3508  1
3509  2
3510  2
3511  3
3512  3
3513  2
3514  0
3515  2
3516  2
3517  1
3518  0
3519  0
3520  0
3521  2
3522  1
3523  2
3524  1
3525  0
3526  0
3527  2
3528  1
3529  0
3530  2
3531  0
3532  0
3533  1
3534  1
3535  1
3536  0
3537  0
3538  2
3539  3
3540  2
3541  1
3542  1
3543  0
3544  2
3545  0
3546  0
3547  2
3548  2
3549  0
3550  1
3551  2
3552  0
3553  1
3554  1
3555  2
3556  1
3557  0
3558  3
3559  1
3560  4
3561  0
3562  4
3563  0
3564  1
3565  2
3566  2
3567  0
3568  0
3569  0
3570  1
3571  3
3572  1
3573  1
3574  0
3575  1
3576  0
3577  1
3578  1
3579  1
3580  0
3581  0
3582  1
3583  1
3584  1
3585  2
3586  3
3587  3
3588  3
3589  1
3590  2
3591  0
3592  1
3593  2
3594  1
3595  2
3596  1
3597  2
3598  1
3599  2
3600  2
3601  2
3602  0
3603  1
3604  1
3605  0
3606  1
3607  2
3608  1
3609  0
3610  1
3611  0
3612  1
3613  1
3614  2
3615  2
3616  2
3617  1
3618  0
3619  0
3620  0
3621  0
3622  1
3623  0
3624  2
3625  0
3626  3
3627  0
3628  2
3629  0
3630  2
3631  0
3632  0
3633  3
3634  1
3635  1
3636  2
3637  3
3638  2
3639  1
3640  1
3641  1
3642  3
3643  2
3644  2
3645  1
3646  0
3647  0
3648  0
3649  0
3650  1
3651  3
3652  1
3653  1
3654  1
3655  0
3656  2
3657  0
3658  0
3659  0
3660  1
3661  3
3662  1
3663  1
3664  1
3665  0
3666  1
3667  0
3668  1
3669  1
3670  1
3671  0
3672  0
3673  0
3674  1
3675  1
3676  2
3677  0
3678  1
3679  1
3680  0
3681  0
3682  1
3683  0
3684  0
3685  0
3686  0
3687  0
3688  1
3689  1
3690  2
3691  2
3692  0
3693  0
3694  1
3695  2
3696  0
3697  1
3698  0
3699  2
3700  3
3701  0
3702  2
3703  0
3704  0
3705  1
3706  0
3707  2
3708  5
3709  0
3710  0
3711  0
3712  0
3713  0
3714  1
3715  0
3716  0
3717  0
3718  1
3719  1
3720  0
3721  0
3722  0
3723  1
3724  0
3725  0
3726  2
3727  0
3728  1
3729  0
3730  0
3731  2
3732  0
3733  0
3734  0
3735  1
3736  0
3737  0
3738  1
3739  0
3740  2
3741  0
3742  1
3743  1
3744  1
3745  0
3746  2
3747  3
3748  0
3749  0
3750  1
3751  2
3752  0
3753  0
3754  0
3755  1
3756  1
3757  0
3758  1
3759  0
3760  0
3761  1
3762  2
3763  0
3764  1
3765  1
3766  0
3767  0
3768  0
3769  2
3770  3
3771  1
3772  1
3773  1
3774  0
3775  1
3776  1
3777  0
3778  1
3779  2
3780  0
3781  0
3782  2
3783  0
3784  1
3785  1
3786  0
3787  2
3788  0
3789  0
3790  1
3791  2
3792  2
3793  0
3794  0
3795  0
3796  0
3797  0
3798  0
3799  2
3800  0
3801  1
3802  0
3803  0
3804  0
3805  0
3806  1
3807  0
3808  1
3809  1
3810  3
3811  1
3812  1
3813  1
3814  0
3815  1
3816  0
3817  0
3818  1
3819  1
3820  0
3821  1
3822  2
3823  0
3824  2
3825  2
3826  0
3827  3
3828  0
3829  1
3830  0
3831  0
3832  3
3833  0
3834  0
3835  0
3836  0
3837  0
3838  1
3839  1
3840  0
3841  0
3842  0
3843  0
3844  0
3845  0
3846  0
3847  0
3848  0
3849  0
3850  0
3851  0
3852  0
3853  0
3854  0
3855  0
3856  0
3857  0
3858  0
3859  0
3860  0
3861  0
3862  0
3863  0
3864  0
3865  0
3866  0
3867  0
3868  0
3869  0
3870  0
3871  0
3872  0
3873  0
3874  0
3875  0
3876  0
3877  0
3878  0
3879  0
3880  0
3881  0
3882  0
3883  0
3884  0
3885  0
3886  0
3887  0
3888  0
3889  0
3890  0
3891  0
3892  0
3893  0
3894  0
3895  0
3896  0
3897  0
3898  0
3899  0
3900  0
3901  0
3902  0
3903  0
3904  0
3905  0
3906  0
3907  0
3908  0
3909  0
3910  0
3911  0
3912  0
3913  0
3914  0
3915  0
3916  0
3917  0
3918  0
3919  0
3920  0
3921  0
3922  0
3923  0
3924  0
3925  0
3926  0
3927  0
3928  0
3929  0
3930  0
3931  0
3932  0
3933  0
3934  0
3935  0
3936  0
3937  0
3938  0
3939  0
3940  0
3941  0
3942  0
3943  0
3944  0
3945  0
3946  0
3947  0
3948  0
3949  0
3950  0
3951  0
3952  0
3953  0
3954  0
3955  0
3956  0
3957  0
3958  0
3959  0
3960  0
3961  0
3962  0
3963  0
3964  0
3965  0
3966  0
3967  0
3968  0
3969  0
3970  0
3971  0
3972  0
3973  0
3974  0
3975  0
3976  0
3977  0
3978  0
3979  0
3980  0
3981  0
3982  0
3983  0
3984  0
3985  0
3986  0
3987  0
3988  0
3989  0
3990  0
3991  0
3992  0
3993  0
3994  0
3995  0
3996  0
3997  0
3998  0
3999  0
4000  0
4001  0
4002  0
4003  0
4004  0
4005  0
4006  0
4007  0
4008  0
4009  0
4010  0
4011  0
4012  0
4013  0
4014  0
4015  0
4016  0
4017  0
4018  0
4019  0
4020  0
4021  0
4022  0
4023  0
4024  0
4025  0
4026  0
4027  0
4028  0
4029  0
4030  0
4031  0
4032  0
4033  0
4034  0
4035  0
4036  0
4037  0
4038  0
4039  0
4040  0
4041  0
4042  0
4043  0
4044  0
4045  0
4046  0
4047  0
4048  0
4049  0
4050  0
4051  0
4052  0
4053  0
4054  0
4055  0
4056  0
4057  0
4058  0
4059  0
4060  0
4061  0
4062  0
4063  0
4064  0
4065  0
4066  0
4067  0
4068  0
4069  0
4070  0
4071  0
4072  0
4073  0
4074  0
4075  0
4076  0
4077  0
4078  0
4079  0
4080  0
4081  0
4082  0
4083  0
4084  0
4085  0
4086  0
4087  0
4088  0
4089  0
4090  0
4091  0
4092  0
4093  0
4094  0
4095  0
