0  0
1  0
2  0
3  0
4  0
5  0
6  0
7  0
8  0
9  0
10  0
11  0
12  0
13  0
14  0
15  0
16  0
17  1
18  40
19  135
20  189
21  131
22  57
23  35
24  30
25  21
26  29
27  31
28  26
29  24
30  26
31  30
32  25
33  28
34  18
35  27
36  28
37  33
38  17
39  32
40  28
41  23
42  21
43  13
44  7
45  9
46  2
47  2
48  1
49  0
50  0
51  0
52  1
53  0
54  0
55  0
56  0
57  0
58  0
59  0
60  0
61  0
62  0
63  0
64  0
65  0
66  0
67  0
68  0
69  0
70  0
71  0
72  0
73  0
74  0
75  0
76  0
77  0
78  0
79  0
80  0
81  0
82  0
83  0
84  0
85  0
86  0
87  0
88  0
89  0
90  0
91  0
92  0
93  0
94  0
95  0
96  0
97  0
98  0
99  0
100  0
101  0
102  0
103  0
104  0
105  0
106  0
107  0
108  0
109  0
110  0
111  0
112  0
113  0
114  0
115  0
116  0
117  0
118  0
119  0
120  0
121  0
122  0
123  0
124  0
125  0
126  0
127  0
128  0
129  0
130  0
131  0
132  0
133  0
134  0
135  0
136  0
137  0
138  0
139  0
140  0
141  0
142  0
143  0
144  0
145  0
146  0
147  0
148  0
149  0
150  0
151  0
152  0
153  0
154  0
155  0
156  0
157  0
158  0
159  0
160  0
161  0
162  0
163  0
164  0
165  0
166  0
167  0
168  0
169  0
170  0
171  0
172  0
173  0
174  0
175  0
176  0
177  0
178  1
179  33
180  250
181  591
182  712
183  715
184  1367
185  2756
186  3016
187  2015
188  1038
189  644
190  508
191  393
192  382
193  307
194  276
195  277
196  260
197  264
198  254
199  245
200  270
201  261
202  244
203  230
204  254
205  246
206  240
207  256
208  267
209  230
210  269
211  269
212  245
213  223
214  225
215  259
216  246
217  211
218  252
219  214
220  262
221  247
222  229
223  234
224  254
225  220
226  236
227  245
228  258
229  189
230  219
231  249
232  221
233  250
234  241
235  229
236  231
237  248
238  245
239  215
240  245
241  234
242  241
243  231
244  241
245  236
246  236
247  234
248  247
249  238
250  244
251  215
252  233
253  230
254  246
255  238
256  286
257  212
258  248
259  215
260  230
261  250
262  235
263  229
264  230
265  267
266  222
267  216
268  207
269  229
270  268
271  218
272  251
273  229
274  255
275  242
276  224
277  230
278  236
279  233
280  240
281  222
282  225
283  225
284  266
285  221
286  220
287  227
288  237
289  238
290  239
291  205
292  250
293  227
294  235
295  254
296  232
297  227
298  229
299  252
300  229
301  233
302  237
303  235
304  234
305  260
306  242
307  244
308  268
309  226
310  253
311  256
312  224
313  203
314  213
315  220
316  249
317  237
318  228
319  211
320  228
321  197
322  225
323  230
324  244
325  227
326  235
327  238
328  262
329  254
330  254
331  234
332  237
333  260
334  253
335  247
336  236
337  194
338  213
339  241
340  246
341  252
342  234
343  260
344  192
345  232
346  258
347  237
348  228
349  245
350  251
351  232
352  249
353  240
354  245
355  238
356  234
357  260
358  253
359  254
360  238
361  233
362  223
363  232
364  250
365  234
366  257
367  238
368  223
369  240
370  262
371  225
372  220
373  265
374  219
375  236
376  231
377  231
378  229
379  259
380  220
381  248
382  228
383  256
384  238
385  202
386  240
387  232
388  281
389  234
390  241
391  263
392  238
393  216
394  256
395  248
396  222
397  212
398  233
399  248
400  246
401  268
402  220
403  233
404  258
405  203
406  229
407  229
408  252
409  235
410  231
411  246
412  209
413  241
414  207
415  264
416  246
417  239
418  226
419  228
420  241
421  242
422  244
423  222
424  230
425  223
426  232
427  215
428  207
429  230
430  232
431  248
432  234
433  220
434  234
435  248
436  246
437  229
438  248
439  249
440  262
441  263
442  225
443  242
444  239
445  255
446  230
447  217
448  249
449  204
450  224
451  243
452  231
453  256
454  246
455  241
456  225
457  260
458  234
459  254
460  272
461  275
462  217
463  236
464  235
465  217
466  246
467  230
468  209
469  241
470  243
471  277
472  242
473  259
474  248
475  273
476  223
477  225
478  217
479  248
480  243
481  232
482  248
483  233
484  216
485  241
486  257
487  223
488  221
489  229
490  228
491  257
492  238
493  243
494  262
495  240
496  243
497  224
498  250
499  246
500  241
501  242
502  247
503  277
504  232
505  232
506  255
507  233
508  234
509  254
510  230
511  219
512  224
513  251
514  219
515  203
516  227
517  256
518  242
519  251
520  272
521  245
522  250
523  210
524  281
525  237
526  246
527  231
528  219
529  255
530  221
531  224
532  230
533  228
534  229
535  208
536  257
537  257
538  232
539  237
540  234
541  242
542  273
543  241
544  245
545  258
546  238
547  253
548  266
549  244
550  241
551  252
552  243
553  226
554  229
555  245
556  233
557  237
558  251
559  220
560  239
561  249
562  214
563  246
564  248
565  222
566  214
567  235
568  258
569  224
570  254
571  250
572  246
573  287
574  232
575  237
576  251
577  237
578  243
579  212
580  257
581  254
582  264
583  246
584  257
585  223
586  238
587  268
588  253
589  204
590  270
591  241
592  239
593  230
594  219
595  231
596  272
597  259
598  231
599  231
600  244
601  222
602  235
603  251
604  223
605  253
606  246
607  253
608  264
609  242
610  219
611  233
612  239
613  240
614  233
615  237
616  252
617  232
618  270
619  257
620  237
621  240
622  197
623  266
624  247
625  245
626  215
627  232
628  223
629  259
630  263
631  273
632  233
633  242
634  253
635  247
636  236
637  283
638  239
639  228
640  265
641  232
642  238
643  226
644  235
645  238
646  235
647  270
648  249
649  229
650  247
651  239
652  250
653  246
654  227
655  228
656  251
657  234
658  253
659  227
660  243
661  234
662  276
663  236
664  253
665  271
666  217
667  236
668  248
669  269
670  221
671  211
672  249
673  269
674  239
675  279
676  248
677  248
678  216
679  246
680  246
681  245
682  264
683  212
684  232
685  270
686  231
687  265
688  262
689  244
690  227
691  278
692  242
693  247
694  234
695  243
696  227
697  231
698  241
699  270
700  250
701  228
702  222
703  220
704  274
705  225
706  253
707  224
708  246
709  237
710  224
711  238
712  258
713  253
714  206
715  230
716  240
717  231
718  247
719  248
720  261
721  255
722  269
723  257
724  234
725  274
726  256
727  241
728  235
729  226
730  246
731  274
732  244
733  264
734  260
735  225
736  254
737  264
738  230
739  240
740  261
741  248
742  252
743  225
744  245
745  273
746  255
747  257
748  244
749  251
750  249
751  237
752  253
753  270
754  248
755  249
756  265
757  223
758  249
759  254
760  252
761  231
762  244
763  244
764  263
765  232
766  251
767  239
768  220
769  273
770  237
771  239
772  231
773  220
774  236
775  235
776  239
777  256
778  249
779  246
780  237
781  238
782  247
783  249
784  268
785  226
786  235
787  259
788  242
789  251
790  238
791  239
792  236
793  261
794  252
795  248
796  241
797  255
798  247
799  248
800  235
801  251
802  225
803  278
804  229
805  229
806  259
807  245
808  244
809  263
810  239
811  268
812  248
813  237
814  270
815  244
816  233
817  254
818  242
819  242
820  231
821  243
822  214
823  260
824  254
825  225
826  228
827  245
828  238
829  236
830  240
831  257
832  201
833  242
834  262
835  225
836  249
837  242
838  222
839  242
840  233
841  234
842  248
843  240
844  241
845  234
846  248
847  251
848  236
849  228
850  216
851  230
852  266
853  243
854  261
855  263
856  239
857  276
858  238
859  230
860  259
861  247
862  273
863  258
864  242
865  236
866  238
867  243
868  265
869  249
870  242
871  255
872  234
873  239
874  246
875  217
876  231
877  256
878  229
879  238
880  270
881  223
882  242
883  219
884  225
885  222
886  228
887  229
888  236
889  221
890  259
891  220
892  208
893  245
894  244
895  245
896  219
897  239
898  228
899  257
900  229
901  218
902  269
903  241
904  209
905  230
906  223
907  241
908  235
909  256
910  220
911  233
912  227
913  237
914  235
915  230
916  252
917  246
918  219
919  242
920  294
921  251
922  242
923  236
924  243
925  241
926  240
927  262
928  255
929  264
930  255
931  226
932  242
933  242
934  244
935  241
936  233
937  238
938  237
939  241
940  235
941  241
942  253
943  212
944  256
945  269
946  238
947  232
948  232
949  218
950  260
951  238
952  184
953  220
954  232
955  224
956  236
957  226
958  264
959  228
960  221
961  221
962  251
963  249
964  252
965  212
966  230
967  268
968  264
969  229
970  233
971  234
972  223
973  239
974  245
975  236
976  234
977  263
978  245
979  245
980  223
981  221
982  248
983  238
984  246
985  211
986  245
987  190
988  225
989  244
990  239
991  236
992  245
993  252
994  212
995  248
996  234
997  250
998  228
999  256
1000  238
1001  275
1002  239
1003  237
1004  237
1005  225
1006  220
1007  237
1008  219
1009  223
1010  254
1011  230
1012  271
1013  231
1014  238
1015  223
1016  245
1017  228
1018  270
1019  247
1020  242
1021  259
1022  248
1023  244
1024  265
1025  222
1026  213
1027  251
1028  212
1029  252
1030  235
1031  240
1032  242
1033  237
1034  231
1035  215
1036  210
1037  245
1038  254
1039  247
1040  228
1041  241
1042  237
1043  256
1044  243
1045  236
1046  249
1047  250
1048  225
1049  224
1050  230
1051  249
1052  234
1053  247
1054  248
1055  242
1056  256
1057  229
1058  227
1059  234
1060  228
1061  245
1062  229
1063  239
1064  237
1065  241
1066  214
1067  239
1068  240
1069  222
1070  252
1071  229
1072  239
1073  239
1074  259
1075  237
1076  260
1077  242
1078  233
1079  259
1080  230
1081  272
1082  250
1083  270
1084  194
1085  233
1086  227
1087  200
1088  245
1089  241
1090  237
1091  256
1092  210
1093  241
1094  240
1095  233
1096  225
1097  235
1098  229
1099  228
1100  230
1101  225
1102  241
1103  239
1104  250
1105  254
1106  219
1107  221
1108  234
1109  242
1110  216
1111  258
1112  246
1113  233
1114  242
1115  234
1116  247
1117  238
1118  213
1119  242
1120  234
1121  220
1122  254
1123  237
1124  230
1125  226
1126  219
1127  245
1128  226
1129  231
1130  256
1131  250
1132  232
1133  237
1134  230
1135  236
1136  242
1137  214
1138  230
1139  239
1140  218
1141  241
1142  247
1143  235
1144  217
1145  252
1146  215
1147  218
1148  234
1149  240
1150  258
1151  221
1152  212
1153  259
1154  247
1155  236
1156  236
1157  238
1158  242
1159  216
1160  261
1161  243
1162  223
1163  228
1164  239
1165  229
1166  238
1167  203
1168  227
1169  215
1170  255
1171  235
1172  241
1173  257
1174  233
1175  241
1176  236
1177  243
1178  260
1179  222
1180  217
1181  225
1182  243
1183  246
1184  250
1185  234
1186  234
1187  240
1188  239
1189  259
1190  250
1191  215
1192  243
1193  263
1194  229
1195  225
1196  209
1197  269
1198  261
1199  252
1200  216
1201  229
1202  243
1203  226
1204  207
1205  243
1206  267
1207  231
1208  236
1209  220
1210  233
1211  250
1212  243
1213  252
1214  203
1215  241
1216  226
1217  252
1218  244
1219  251
1220  239
1221  245
1222  224
1223  240
1224  248
1225  229
1226  232
1227  255
1228  252
1229  260
1230  247
1231  223
1232  243
1233  236
1234  216
1235  254
1236  227
1237  239
1238  249
1239  245
1240  228
1241  263
1242  220
1243  250
1244  245
1245  224
1246  239
1247  260
1248  225
1249  238
1250  246
1251  260
1252  260
1253  247
1254  253
1255  247
1256  222
1257  245
1258  264
1259  248
1260  252
1261  241
1262  258
1263  229
1264  254
1265  221
1266  236
1267  230
1268  253
1269  249
1270  265
1271  229
1272  258
1273  248
1274  231
1275  243
1276  239
1277  225
1278  227
1279  242
1280  239
1281  232
1282  264
1283  236
1284  244
1285  248
1286  237
1287  251
1288  235
1289  263
1290  236
1291  259
1292  249
1293  278
1294  268
1295  285
1296  220
1297  234
1298  238
1299  227
1300  236
1301  260
1302  257
1303  244
1304  257
1305  257
1306  248
1307  228
1308  243
1309  264
1310  230
1311  247
1312  240
1313  236
1314  220
1315  266
1316  223
1317  225
1318  259
1319  259
1320  218
1321  204
1322  278
1323  220
1324  247
1325  245
1326  272
1327  225
1328  239
1329  232
1330  264
1331  247
1332  235
1333  218
1334  263
1335  248
1336  255
1337  225
1338  263
1339  222
1340  270
1341  247
1342  228
1343  238
1344  237
1345  209
1346  259
1347  272
1348  232
1349  241
1350  250
1351  249
1352  240
1353  251
1354  241
1355  231
1356  246
1357  265
1358  259
1359  238
1360  289
1361  264
1362  248
1363  261
1364  206
1365  237
1366  270
1367  248
1368  263
1369  295
1370  256
1371  233
1372  255
1373  271
1374  220
1375  254
1376  248
1377  252
1378  248
1379  212
1380  218
1381  232
1382  236
1383  229
1384  265
1385  243
1386  279
1387  267
1388  254
1389  265
1390  232
1391  246
1392  268
1393  254
1394  279
1395  262
1396  241
1397  248
1398  239
1399  238
1400  253
1401  261
1402  230
1403  258
1404  244
1405  272
1406  245
1407  225
1408  260
1409  237
1410  266
1411  246
1412  242
1413  232
1414  238
1415  259
1416  225
1417  242
1418  251
1419  251
1420  249
1421  261
1422  248
1423  229
1424  253
1425  234
1426  253
1427  252
1428  226
1429  249
1430  252
1431  271
1432  243
1433  220
1434  246
1435  236
1436  253
1437  240
1438  211
1439  263
1440  220
1441  266
1442  262
1443  234
1444  251
1445  254
1446  271
1447  268
1448  236
1449  238
1450  254
1451  269
1452  211
1453  248
1454  280
1455  272
1456  263
1457  223
1458  217
1459  272
1460  234
1461  243
1462  234
1463  263
1464  253
1465  230
1466  229
1467  273
1468  246
1469  240
1470  213
1471  257
1472  244
1473  241
1474  257
1475  214
1476  251
1477  246
1478  269
1479  235
1480  230
1481  200
1482  226
1483  247
1484  238
1485  241
1486  234
1487  250
1488  236
1489  258
1490  246
1491  237
1492  266
1493  251
1494  235
1495  239
1496  250
1497  242
1498  251
1499  272
1500  260
1501  260
1502  254
1503  234
1504  262
1505  224
1506  262
1507  245
1508  233
1509  215
1510  226
1511  242
1512  245
1513  232
1514  219
1515  239
1516  230
1517  254
1518  232
1519  238
1520  226
1521  247
1522  226
1523  251
1524  281
1525  220
1526  233
1527  264
1528  225
1529  251
1530  238
1531  245
1532  243
1533  257
1534  224
1535  228
1536  242
1537  251
1538  213
1539  232
1540  244
1541  231
1542  246
1543  237
1544  240
1545  248
1546  225
1547  256
1548  213
1549  234
1550  268
1551  236
1552  236
1553  243
1554  250
1555  220
1556  268
1557  237
1558  235
1559  234
1560  248
1561  258
1562  224
1563  263
1564  224
1565  260
1566  234
1567  263
1568  230
1569  236
1570  262
1571  259
1572  241
1573  226
1574  273
1575  235
1576  214
1577  255
1578  249
1579  270
1580  310
1581  222
1582  284
1583  262
1584  236
1585  248
1586  246
1587  243
1588  260
1589  231
1590  241
1591  241
1592  255
1593  219
1594  250
1595  256
1596  241
1597  258
1598  253
1599  236
1600  251
1601  259
1602  250
1603  253
1604  243
1605  248
1606  251
1607  249
1608  212
1609  239
1610  236
1611  280
1612  231
1613  268
1614  236
1615  232
1616  257
1617  248
1618  257
1619  234
1620  257
1621  243
1622  266
1623  222
1624  242
1625  257
1626  242
1627  245
1628  264
1629  241
1630  228
1631  219
1632  212
1633  273
1634  256
1635  253
1636  224
1637  260
1638  224
1639  236
1640  212
1641  239
1642  213
1643  271
1644  230
1645  249
1646  245
1647  273
1648  252
1649  246
1650  231
1651  256
1652  250
1653  259
1654  244
1655  236
1656  254
1657  232
1658  227
1659  254
1660  236
1661  246
1662  251
1663  226
1664  235
1665  241
1666  227
1667  276
1668  237
1669  246
1670  246
1671  248
1672  241
1673  245
1674  227
1675  217
1676  242
1677  234
1678  266
1679  238
1680  227
1681  254
1682  256
1683  256
1684  240
1685  254
1686  246
1687  252
1688  271
1689  261
1690  236
1691  260
1692  242
1693  263
1694  243
1695  230
1696  257
1697  223
1698  220
1699  211
1700  246
1701  225
1702  236
1703  227
1704  247
1705  219
1706  241
1707  236
1708  267
1709  231
1710  244
1711  227
1712  220
1713  246
1714  226
1715  207
1716  259
1717  243
1718  259
1719  272
1720  209
1721  230
1722  251
1723  269
1724  266
1725  232
1726  232
1727  247
1728  248
1729  209
1730  257
1731  263
1732  232
1733  237
1734  243
1735  231
1736  250
1737  235
1738  220
1739  248
1740  234
1741  236
1742  276
1743  249
1744  265
1745  210
1746  239
1747  251
1748  245
1749  256
1750  255
1751  256
1752  243
1753  255
1754  248
1755  241
1756  259
1757  267
1758  249
1759  273
1760  228
1761  236
1762  223
1763  261
1764  273
1765  221
1766  245
1767  231
1768  260
1769  261
1770  249
1771  222
1772  252
1773  207
1774  243
1775  252
1776  247
1777  248
1778  228
1779  258
1780  232
1781  244
1782  231
1783  232
1784  229
1785  248
1786  261
1787  232
1788  255
1789  244
1790  236
1791  238
1792  236
1793  220
1794  251
1795  246
1796  239
1797  228
1798  245
1799  230
1800  230
1801  222
1802  230
1803  248
1804  255
1805  251
1806  239
1807  247
1808  219
1809  231
1810  256
1811  263
1812  238
1813  208
1814  225
1815  241
1816  215
1817  263
1818  251
1819  249
1820  236
1821  251
1822  226
1823  237
1824  271
1825  217
1826  222
1827  258
1828  225
1829  245
1830  274
1831  245
1832  283
1833  221
1834  241
1835  258
1836  232
1837  260
1838  238
1839  264
1840  259
1841  253
1842  244
1843  210
1844  230
1845  227
1846  233
1847  232
1848  237
1849  219
1850  235
1851  233
1852  230
1853  216
1854  220
1855  216
1856  229
1857  213
1858  225
1859  238
1860  237
1861  273
1862  248
1863  255
1864  226
1865  242
1866  225
1867  224
1868  271
1869  238
1870  238
1871  248
1872  251
1873  236
1874  224
1875  281
1876  228
1877  237
1878  240
1879  234
1880  242
1881  263
1882  247
1883  239
1884  231
1885  230
1886  252
1887  209
1888  256
1889  219
1890  200
1891  234
1892  250
1893  194
1894  234
1895  228
1896  253
1897  248
1898  236
1899  247
1900  251
1901  218
1902  230
1903  219
1904  257
1905  208
1906  228
1907  225
1908  234
1909  247
1910  227
1911  220
1912  221
1913  234
1914  252
1915  252
1916  252
1917  217
1918  224
1919  231
1920  237
1921  235
1922  219
1923  238
1924  252
1925  242
1926  239
1927  266
1928  225
1929  248
1930  247
1931  246
1932  230
1933  258
1934  204
1935  273
1936  229
1937  250
1938  217
1939  242
1940  248
1941  256
1942  245
1943  234
1944  196
1945  218
1946  204
1947  249
1948  200
1949  254
1950  223
1951  204
1952  231
1953  227
1954  223
1955  256
1956  254
1957  201
1958  235
1959  244
1960  230
1961  230
1962  230
1963  224
1964  227
1965  227
1966  224
1967  244
1968  226
1969  229
1970  251
1971  266
1972  234
1973  228
1974  228
1975  220
1976  254
1977  262
1978  250
1979  257
1980  236
1981  216
1982  220
1983  235
1984  269
1985  210
1986  239
1987  250
1988  206
1989  244
1990  257
1991  248
1992  231
1993  268
1994  248
1995  257
1996  258
1997  233
1998  238
1999  207
2000  272
2001  247
2002  255
2003  248
2004  226
2005  222
2006  236
2007  218
2008  244
2009  268
2010  220
2011  224
2012  227
2013  236
2014  226
2015  227
2016  232
2017  222
2018  256
2019  252
2020  239
2021  252
2022  253
2023  231
2024  256
2025  272
2026  226
2027  241
2028  243
2029  229
2030  227
2031  236
2032  233
2033  228
2034  255
2035  234
2036  227
2037  249
2038  248
2039  241
2040  222
2041  257
2042  222
2043  248
2044  249
2045  221
2046  258
2047  235
2048  252
2049  221
2050  227
2051  250
2052  244
2053  234
2054  230
2055  238
2056  251
2057  251
2058  256
2059  221
2060  265
2061  249
2062  235
2063  247
2064  274
2065  220
2066  243
2067  243
2068  228
2069  234
2070  249
2071  245
2072  232
2073  234
2074  254
2075  260
2076  253
2077  237
2078  252
2079  237
2080  233
2081  204
2082  245
2083  251
2084  256
2085  254
2086  243
2087  215
2088  268
2089  263
2090  263
2091  221
2092  251
2093  222
2094  249
2095  231
2096  261
2097  262
2098  229
2099  259
2100  215
2101  275
2102  246
2103  247
2104  241
2105  255
2106  246
2107  246
2108  243
2109  243
2110  269
2111  262
2112  234
2113  267
2114  219
2115  266
2116  245
2117  247
2118  257
2119  252
2120  247
2121  226
2122  263
2123  240
2124  249
2125  256
2126  257
2127  230
2128  236
2129  263
2130  257
2131  254
2132  264
2133  237
2134  245
2135  216
2136  246
2137  235
2138  248
2139  272
2140  248
2141  257
2142  255
2143  243
2144  226
2145  242
2146  237
2147  260
2148  268
2149  235
2150  247
2151  248
2152  227
2153  243
2154  249
2155  246
2156  267
2157  223
2158  282
2159  254
2160  237
2161  252
2162  228
2163  242
2164  226
2165  247
2166  251
2167  256
2168  201
2169  293
2170  275
2171  244
2172  266
2173  273
2174  220
2175  252
2176  239
2177  230
2178  278
2179  266
2180  244
2181  238
2182  233
2183  239
2184  228
2185  255
2186  236
2187  242
2188  260
2189  247
2190  249
2191  243
2192  210
2193  275
2194  249
2195  265
2196  280
2197  229
2198  245
2199  240
2200  238
2201  241
2202  245
2203  232
2204  255
2205  274
2206  234
2207  253
2208  252
2209  262
2210  275
2211  232
2212  277
2213  254
2214  261
2215  239
2216  241
2217  233
2218  229
2219  238
2220  242
2221  260
2222  245
2223  226
2224  249
2225  253
2226  260
2227  233
2228  241
2229  265
2230  244
2231  236
2232  246
2233  254
2234  232
2235  266
2236  229
2237  232
2238  252
2239  241
2240  239
2241  254
2242  234
2243  219
2244  263
2245  235
2246  238
2247  250
2248  244
2249  222
2250  250
2251  243
2252  249
2253  240
2254  221
2255  248
2256  257
2257  274
2258  238
2259  236
2260  266
2261  241
2262  217
2263  227
2264  269
2265  255
2266  250
2267  251
2268  275
2269  230
2270  224
2271  248
2272  261
2273  236
2274  253
2275  241
2276  233
2277  231
2278  227
2279  228
2280  221
2281  212
2282  243
2283  227
2284  224
2285  252
2286  223
2287  243
2288  260
2289  252
2290  228
2291  231
2292  244
2293  219
2294  266
2295  203
2296  225
2297  275
2298  232
2299  235
2300  233
2301  229
2302  250
2303  225
2304  242
2305  235
2306  279
2307  255
2308  213
2309  252
2310  241
2311  267
2312  265
2313  238
2314  265
2315  204
2316  252
2317  270
2318  264
2319  245
2320  219
2321  230
2322  268
2323  247
2324  220
2325  289
2326  235
2327  234
2328  223
2329  273
2330  277
2331  231
2332  244
2333  263
2334  265
2335  257
2336  234
2337  251
2338  204
2339  229
2340  243
2341  243
2342  258
2343  254
2344  241
2345  215
2346  244
2347  231
2348  222
2349  242
2350  256
2351  244
2352  275
2353  262
2354  273
2355  237
2356  234
2357  242
2358  237
2359  231
2360  262
2361  255
2362  243
2363  249
2364  243
2365  239
2366  275
2367  232
2368  261
2369  260
2370  249
2371  267
2372  232
2373  246
2374  260
2375  237
2376  227
2377  243
2378  254
2379  240
2380  227
2381  256
2382  244
2383  260
2384  243
2385  243
2386  257
2387  216
2388  254
2389  273
2390  256
2391  262
2392  240
2393  225
2394  261
2395  217
2396  227
2397  233
2398  239
2399  264
2400  264
2401  242
2402  242
2403  224
2404  258
2405  217
2406  253
2407  214
2408  249
2409  231
2410  226
2411  262
2412  260
2413  232
2414  247
2415  232
2416  280
2417  228
2418  256
2419  268
2420  228
2421  226
2422  233
2423  248
2424  257
2425  247
2426  234
2427  263
2428  259
2429  276
2430  244
2431  255
2432  252
2433  270
2434  246
2435  266
2436  231
2437  235
2438  215
2439  273
2440  262
2441  242
2442  270
2443  232
2444  266
2445  245
2446  263
2447  232
2448  260
2449  231
2450  253
2451  275
2452  255
2453  244
2454  275
2455  241
2456  251
2457  226
2458  222
2459  274
2460  227
2461  265
2462  228
2463  278
2464  265
2465  280
2466  254
2467  236
2468  241
2469  248
2470  261
2471  224
2472  255
2473  239
2474  245
2475  235
2476  223
2477  273
2478  234
2479  273
2480  240
2481  243
2482  243
2483  237
2484  263
2485  245
2486  228
2487  227
2488  238
2489  238
2490  259
2491  254
2492  270
2493  226
2494  250
2495  230
2496  233
2497  234
2498  257
2499  215
2500  258
2501  233
2502  244
2503  239
2504  244
2505  249
2506  246
2507  242
2508  224
2509  284
2510  239
2511  258
2512  254
2513  249
2514  227
2515  263
2516  241
2517  234
2518  244
2519  259
2520  232
2521  270
2522  232
2523  258
2524  229
2525  228
2526  220
2527  239
2528  210
2529  244
2530  222
2531  241
2532  237
2533  252
2534  245
2535  229
2536  256
2537  263
2538  240
2539  233
2540  232
2541  224
2542  253
2543  239
2544  220
2545  265
2546  237
2547  217
2548  247
2549  247
2550  244
2551  214
2552  244
2553  237
2554  226
2555  267
2556  227
2557  245
2558  236
2559  245
2560  254
2561  229
2562  258
2563  240
2564  252
2565  233
2566  234
2567  226
2568  252
2569  248
2570  238
2571  249
2572  262
2573  221
2574  236
2575  237
2576  247
2577  241
2578  230
2579  241
2580  237
2581  242
2582  231
2583  234
2584  253
2585  236
2586  241
2587  249
2588  219
2589  243
2590  241
2591  235
2592  237
2593  260
2594  254
2595  250
2596  251
2597  237
2598  240
2599  267
2600  243
2601  242
2602  245
2603  246
2604  243
2605  231
2606  254
2607  254
2608  228
2609  250
2610  245
2611  265
2612  235
2613  243
2614  264
2615  252
2616  213
2617  276
2618  214
2619  230
2620  224
2621  233
2622  239
2623  248
2624  220
2625  229
2626  260
2627  232
2628  229
2629  253
2630  222
2631  231
2632  203
2633  242
2634  227
2635  238
2636  250
2637  274
2638  238
2639  259
2640  226
2641  231
2642  226
2643  270
2644  224
2645  261
2646  241
2647  219
2648  252
2649  234
2650  245
2651  251
2652  240
2653  264
2654  232
2655  240
2656  218
2657  220
2658  243
2659  227
2660  240
2661  230
2662  254
2663  231
2664  219
2665  236
2666  241
2667  244
2668  218
2669  241
2670  275
2671  241
2672  238
2673  268
2674  249
2675  222
2676  250
2677  252
2678  256
2679  236
2680  229
2681  229
2682  216
2683  206
2684  209
2685  235
2686  239
2687  238
2688  235
2689  241
2690  239
2691  273
2692  220
2693  240
2694  232
2695  256
2696  250
2697  242
2698  260
2699  227
2700  238
2701  231
2702  226
2703  231
2704  255
2705  221
2706  235
2707  250
2708  228
2709  241
2710  231
2711  266
2712  231
2713  252
2714  243
2715  224
2716  217
2717  269
2718  230
2719  237
2720  269
2721  252
2722  234
2723  225
2724  241
2725  232
2726  250
2727  273
2728  227
2729  228
2730  229
2731  251
2732  232
2733  227
2734  239
2735  242
2736  225
2737  229
2738  253
2739  219
2740  246
2741  218
2742  247
2743  224
2744  244
2745  276
2746  208
2747  226
2748  257
2749  228
2750  241
2751  237
2752  245
2753  226
2754  240
2755  238
2756  224
2757  236
2758  231
2759  227
2760  234
2761  240
2762  246
2763  229
2764  237
2765  235
2766  237
2767  213
2768  242
2769  232
2770  244
2771  231
2772  230
2773  248
2774  239
2775  220
2776  223
2777  240
2778  227
2779  230
2780  253
2781  234
2782  217
2783  221
2784  222
2785  252
2786  225
2787  245
2788  211
2789  218
2790  235
2791  217
2792  214
2793  228
2794  246
2795  223
2796  221
2797  244
2798  205
2799  235
2800  260
2801  234
2802  255
2803  262
2804  205
2805  239
2806  227
2807  239
2808  243
2809  238
2810  243
2811  230
2812  212
2813  246
2814  235
2815  241
2816  248
2817  232
2818  263
2819  242
2820  233
2821  210
2822  257
2823  238
2824  248
2825  264
2826  238
2827  273
2828  232
2829  227
2830  239
2831  251
2832  262
2833  232
2834  225
2835  217
2836  254
2837  230
2838  222
2839  224
2840  246
2841  248
2842  239
2843  247
2844  240
2845  247
2846  221
2847  238
2848  240
2849  248
2850  240
2851  241
2852  209
2853  232
2854  202
2855  233
2856  247
2857  224
2858  246
2859  229
2860  244
2861  214
2862  228
2863  234
2864  219
2865  230
2866  250
2867  238
2868  220
2869  220
2870  255
2871  239
2872  239
2873  255
2874  231
2875  227
2876  255
2877  240
2878  258
2879  248
2880  239
2881  268
2882  218
2883  247
2884  232
2885  192
2886  252
2887  243
2888  240
2889  234
2890  255
2891  231
2892  235
2893  237
2894  233
2895  244
2896  252
2897  255
2898  221
2899  202
2900  240
2901  227
2902  248
2903  254
2904  252
2905  250
2906  219
2907  207
2908  242
2909  239
2910  231
2911  247
2912  247
2913  240
2914  231
2915  213
2916  218
2917  230
2918  245
2919  222
2920  264
2921  225
2922  237
2923  246
2924  227
2925  247
2926  233
2927  215
2928  227
2929  275
2930  249
2931  249
2932  222
2933  221
2934  248
2935  267
2936  212
2937  242
2938  248
2939  260
2940  243
2941  262
2942  249
2943  260
2944  256
2945  216
2946  261
2947  217
2948  271
2949  260
2950  263
2951  283
2952  239
2953  224
2954  225
2955  242
2956  240
2957  236
2958  251
2959  238
2960  261
2961  236
2962  239
2963  248
2964  265
2965  239
2966  256
2967  206
2968  236
2969  198
2970  286
2971  239
2972  233
2973  261
2974  243
2975  238
2976  258
2977  221
2978  233
2979  252
2980  245
2981  274
2982  231
2983  249
2984  239
2985  254
2986  248
2987  259
2988  237
2989  233
2990  263
2991  229
2992  242
2993  238
2994  226
2995  229
2996  246
2997  231
2998  261
2999  239
3000  259
3001  239
3002  271
3003  227
3004  255
3005  253
3006  246
3007  214
3008  258
3009  258
3010  243
3011  268
3012  244
3013  259
3014  270
3015  270
3016  238
3017  241
3018  261
3019  267
3020  274
3021  253
3022  253
3023  250
3024  256
3025  206
3026  250
3027  235
3028  269
3029  239
3030  227
3031  235
3032  254
3033  235
3034  230
3035  232
3036  268
3037  256
3038  263
3039  244
3040  228
3041  258
3042  248
3043  264
3044  263
3045  254
3046  247
3047  281
3048  246
3049  270
3050  271
3051  252
3052  238
3053  244
3054  220
3055  231
3056  267
3057  250
3058  255
3059  232
3060  256
3061  241
3062  255
3063  243
3064  241
3065  250
3066  257
3067  257
3068  244
3069  240
3070  279
3071  221
3072  243
3073  252
3074  268
3075  271
3076  235
3077  237
3078  240
3079  230
3080  237
3081  222
3082  229
3083  229
3084  250
3085  245
3086  211
3087  245
3088  275
3089  250
3090  252
3091  231
3092  226
3093  246
3094  264
3095  251
3096  209
3097  259
3098  225
3099  243
3100  243
3101  233
3102  252
3103  249
3104  265
3105  254
3106  246
3107  279
3108  210
3109  259
3110  232
3111  219
3112  248
3113  264
3114  226
3115  256
3116  275
3117  221
3118  265
3119  251
3120  246
3121  235
3122  234
3123  210
3124  259
3125  267
3126  250
3127  255
3128  248
3129  234
3130  247
3131  230
3132  240
3133  237
3134  230
3135  260
3136  253
3137  224
3138  224
3139  234
3140  236
3141  246
3142  293
3143  230
3144  247
3145  246
3146  265
3147  266
3148  249
3149  249
3150  221
3151  256
3152  212
3153  227
3154  255
3155  232
3156  241
3157  232
3158  232
3159  259
3160  281
3161  221
3162  235
3163  244
3164  208
3165  252
3166  254
3167  241
3168  207
3169  237
3170  225
3171  235
3172  275
3173  264
3174  258
3175  244
3176  255
3177  238
3178  231
3179  253
3180  259
3181  242
3182  260
3183  239
3184  240
3185  246
3186  255
3187  236
3188  229
3189  286
3190  211
3191  248
3192  229
3193  248
3194  227
3195  236
3196  250
3197  238
3198  244
3199  253
3200  244
3201  230
3202  234
3203  242
3204  247
3205  247
3206  243
3207  242
3208  238
3209  235
3210  258
3211  274
3212  256
3213  231
3214  233
3215  228
3216  235
3217  256
3218  258
3219  248
3220  244
3221  273
3222  275
3223  246
3224  242
3225  228
3226  247
3227  250
3228  244
3229  261
3230  229
3231  248
3232  254
3233  234
3234  209
3235  246
3236  250
3237  238
3238  229
3239  231
3240  256
3241  267
3242  251
3243  234
3244  262
3245  247
3246  230
3247  233
3248  232
3249  235
3250  261
3251  258
3252  236
3253  231
3254  240
3255  213
3256  234
3257  228
3258  261
3259  245
3260  249
3261  235
3262  254
3263  245
3264  259
3265  269
3266  230
3267  275
3268  228
3269  254
3270  261
3271  242
3272  270
3273  241
3274  246
3275  263
3276  238
3277  241
3278  230
3279  253
3280  228
3281  231
3282  226
3283  244
3284  267
3285  263
3286  266
3287  246
3288  232
3289  235
3290  259
3291  241
3292  275
3293  240
3294  237
3295  244
3296  253
3297  225
3298  248
3299  225
3300  249
3301  240
3302  251
3303  253
3304  252
3305  241
3306  219
3307  225
3308  267
3309  239
3310  228
3311  265
3312  233
3313  256
3314  267
3315  250
3316  243
3317  247
3318  215
3319  252
3320  253
3321  243
3322  223
3323  269
3324  248
3325  252
3326  255
3327  252
3328  255
3329  244
3330  212
3331  226
3332  274
3333  268
3334  237
3335  240
3336  226
3337  253
3338  248
3339  244
3340  251
3341  223
3342  232
3343  252
3344  250
3345  247
3346  237
3347  228
3348  254
3349  257
3350  254
3351  253
3352  216
3353  237
3354  224
3355  235
3356  239
3357  234
3358  233
3359  238
3360  250
3361  227
3362  227
3363  237
3364  227
3365  252
3366  259
3367  268
3368  264
3369  255
3370  253
3371  254
3372  270
3373  268
3374  239
3375  242
3376  217
3377  251
3378  248
3379  253
3380  225
3381  250
3382  220
3383  240
3384  244
3385  212
3386  232
3387  251
3388  256
3389  228
3390  239
3391  254
3392  241
3393  247
3394  224
3395  238
3396  247
3397  260
3398  222
3399  230
3400  249
3401  237
3402  237
3403  230
3404  256
3405  259
3406  222
3407  227
3408  236
3409  238
3410  266
3411  238
3412  224
3413  244
3414  254
3415  263
3416  247
3417  241
3418  231
3419  229
3420  227
3421  249
3422  240
3423  218
3424  249
3425  262
3426  248
3427  241
3428  251
3429  284
3430  253
3431  264
3432  236
3433  243
3434  239
3435  244
3436  227
3437  232
3438  234
3439  242
3440  240
3441  251
3442  250
3443  259
3444  205
3445  285
3446  263
3447  197
3448  234
3449  221
3450  239
3451  269
3452  234
3453  231
3454  250
3455  221
3456  252
3457  250
3458  262
3459  246
3460  259
3461  224
3462  232
3463  267
3464  242
3465  232
3466  232
3467  247
3468  247
3469  216
3470  236
3471  230
3472  232
3473  212
3474  169
3475  147
3476  108
3477  88
3478  62
3479  48
3480  32
3481  12
3482  4
3483  1
3484  1
3485  0
3486  1
3487  0
3488  0
3489  0
3490  0
3491  0
3492  1
3493  0
3494  0
3495  0
3496  0
3497  0
3498  0
3499  0
3500  0
3501  0
3502  0
3503  0
3504  0
3505  0
3506  0
3507  0
3508  0
3509  0
3510  0
3511  0
3512  0
3513  0
3514  0
3515  0
3516  0
3517  0
3518  0
3519  0
3520  0
3521  0
3522  0
3523  0
3524  0
3525  0
3526  0
3527  0
3528  0
3529  0
3530  0
3531  0
3532  0
3533  0
3534  0
3535  0
3536  0
3537  0
3538  0
3539  0
3540  0
3541  0
3542  0
3543  0
3544  0
3545  0
3546  0
3547  0
3548  0
3549  0
3550  0
3551  0
3552  0
3553  0
3554  0
3555  0
3556  0
3557  0
3558  0
3559  0
3560  0
3561  0
3562  0
3563  0
3564  0
3565  0
3566  0
3567  0
3568  0
3569  0
3570  0
3571  0
3572  0
3573  0
3574  0
3575  0
3576  0
3577  0
3578  0
3579  0
3580  0
3581  0
3582  0
3583  0
3584  0
3585  0
3586  0
3587  0
3588  0
3589  0
3590  0
3591  0
3592  0
3593  0
3594  0
3595  0
3596  0
3597  0
3598  0
3599  0
3600  0
3601  0
3602  0
3603  0
3604  0
3605  0
3606  0
3607  0
3608  0
3609  0
3610  0
3611  0
3612  0
3613  0
3614  0
3615  0
3616  0
3617  0
3618  0
3619  0
3620  0
3621  0
3622  0
3623  0
3624  0
3625  0
3626  0
3627  0
3628  0
3629  0
3630  0
3631  0
3632  0
3633  0
3634  0
3635  0
3636  0
3637  0
3638  0
3639  0
3640  0
3641  0
3642  0
3643  0
3644  0
3645  0
3646  0
3647  0
3648  0
3649  0
3650  0
3651  0
3652  0
3653  0
3654  0
3655  0
3656  0
3657  0
3658  0
3659  0
3660  0
3661  0
3662  0
3663  0
3664  0
3665  0
3666  0
3667  0
3668  0
3669  0
3670  0
3671  0
3672  0
3673  0
3674  0
3675  0
3676  0
3677  0
3678  0
3679  0
3680  0
3681  0
3682  0
3683  0
3684  0
3685  0
3686  0
3687  0
3688  0
3689  0
3690  0
3691  0
3692  0
3693  0
3694  0
3695  0
3696  0
3697  0
3698  0
3699  0
3700  0
3701  0
3702  0
3703  0
3704  0
3705  0
3706  0
3707  0
3708  0
3709  0
3710  0
3711  0
3712  0
3713  0
3714  0
3715  0
3716  0
3717  0
3718  0
3719  0
3720  0
3721  0
3722  0
3723  0
3724  0
3725  0
3726  0
3727  0
3728  0
3729  0
3730  0
3731  0
3732  0
3733  0
3734  0
3735  0
3736  0
3737  0
3738  0
3739  0
3740  0
3741  0
3742  0
3743  0
3744  0
3745  0
3746  0
3747  0
3748  0
3749  0
3750  0
3751  0
3752  0
3753  0
3754  0
3755  0
3756  0
3757  0
3758  0
3759  0
3760  0
3761  0
3762  0
3763  0
3764  0
3765  0
3766  0
3767  0
3768  0
3769  0
3770  0
3771  0
3772  0
3773  0
3774  0
3775  0
3776  0
3777  0
3778  0
3779  0
3780  0
3781  0
3782  0
3783  0
3784  0
3785  0
3786  0
3787  0
3788  0
3789  0
3790  0
3791  0
3792  0
3793  0
3794  0
3795  0
3796  0
3797  0
3798  0
3799  0
3800  0
3801  0
3802  0
3803  0
3804  0
3805  0
3806  0
3807  0
3808  0
3809  0
3810  0
3811  0
3812  0
3813  0
3814  0
3815  0
3816  0
3817  0
3818  0
3819  0
3820  0
3821  0
3822  0
3823  0
3824  0
3825  0
3826  0
3827  0
3828  0
3829  0
3830  0
3831  0
3832  0
3833  0
3834  0
3835  0
3836  0
3837  0
3838  0
3839  0
3840  0
3841  0
3842  0
3843  0
3844  0
3845  0
3846  0
3847  0
3848  0
3849  0
3850  0
3851  0
3852  0
3853  0
3854  0
3855  0
3856  0
3857  0
3858  0
3859  0
3860  0
3861  0
3862  0
3863  0
3864  0
3865  0
3866  0
3867  0
3868  0
3869  0
3870  0
3871  0
3872  0
3873  0
3874  0
3875  0
3876  0
3877  0
3878  0
3879  0
3880  0
3881  0
3882  0
3883  0
3884  0
3885  0
3886  0
3887  0
3888  0
3889  0
3890  0
3891  0
3892  0
3893  0
3894  0
3895  0
3896  0
3897  0
3898  0
3899  0
3900  0
3901  0
3902  0
3903  0
3904  0
3905  0
3906  0
3907  0
3908  0
3909  0
3910  0
3911  0
3912  0
3913  0
3914  0
3915  0
3916  0
3917  0
3918  0
3919  0
3920  0
3921  0
3922  0
3923  0
3924  0
3925  0
3926  0
3927  0
3928  0
3929  0
3930  0
3931  0
3932  0
3933  0
3934  0
3935  0
3936  0
3937  0
3938  0
3939  0
3940  0
3941  0
3942  0
3943  0
3944  0
3945  0
3946  0
3947  0
3948  0
3949  0
3950  0
3951  0
3952  0
3953  0
3954  0
3955  0
3956  0
3957  0
3958  0
3959  0
3960  0
3961  0
3962  0
3963  0
3964  0
3965  0
3966  0
3967  0
3968  0
3969  0
3970  0
3971  0
3972  0
3973  0
3974  0
3975  0
3976  0
3977  0
3978  0
3979  0
3980  0
3981  0
3982  0
3983  0
3984  0
3985  0
3986  0
3987  0
3988  0
3989  0
3990  0
3991  0
3992  0
3993  0
3994  0
3995  0
3996  0
3997  0
3998  0
3999  0
4000  0
4001  0
4002  0
4003  0
4004  0
4005  0
4006  0
4007  0
4008  0
4009  0
4010  0
4011  0
4012  0
4013  0
4014  0
4015  0
4016  0
4017  0
4018  0
4019  0
4020  0
4021  0
4022  0
4023  0
4024  0
4025  0
4026  0
4027  0
4028  0
4029  0
4030  0
4031  0
4032  0
4033  0
4034  0
4035  0
4036  0
4037  0
4038  0
4039  0
4040  0
4041  0
4042  0
4043  0
4044  0
4045  0
4046  0
4047  0
4048  0
4049  0
4050  0
4051  0
4052  0
4053  0
4054  0
4055  0
4056  0
4057  0
4058  0
4059  0
4060  0
4061  0
4062  0
4063  0
4064  0
4065  0
4066  0
4067  0
4068  0
4069  0
4070  0
4071  0
4072  0
4073  0
4074  0
4075  0
4076  0
4077  0
4078  0
4079  0
4080  0
4081  0
4082  0
4083  0
4084  0
4085  0
4086  0
4087  0
4088  0
4089  0
4090  0
4091  0
4092  0
4093  0
4094  0
4095  0
