0  0
1  0
2  0
3  0
4  0
5  0
6  0
7  0
8  0
9  0
10  0
11  0
12  0
13  0
14  0
15  0
16  0
17  0
18  6
19  30
20  49
21  40
22  12
23  5
24  4
25  12
26  7
27  5
28  2
29  2
30  11
31  6
32  5
33  10
34  5
35  5
36  4
37  4
38  4
39  4
40  4
41  5
42  3
43  6
44  3
45  2
46  2
47  0
48  0
49  0
50  0
51  0
52  0
53  0
54  0
55  0
56  0
57  0
58  0
59  0
60  0
61  0
62  0
63  0
64  0
65  0
66  0
67  0
68  0
69  0
70  0
71  0
72  0
73  0
74  0
75  0
76  0
77  0
78  0
79  0
80  0
81  0
82  0
83  0
84  0
85  0
86  0
87  0
88  0
89  0
90  0
91  0
92  0
93  0
94  0
95  0
96  0
97  0
98  0
99  0
100  0
101  0
102  0
103  0
104  0
105  0
106  0
107  0
108  0
109  0
110  0
111  0
112  0
113  0
114  0
115  0
116  0
117  0
118  0
119  0
120  0
121  0
122  0
123  0
124  0
125  0
126  0
127  0
128  0
129  0
130  0
131  0
132  0
133  0
134  0
135  0
136  0
137  0
138  0
139  0
140  0
141  0
142  0
143  0
144  0
145  0
146  0
147  0
148  0
149  0
150  0
151  0
152  0
153  0
154  0
155  0
156  0
157  0
158  0
159  0
160  0
161  0
162  0
163  0
164  0
165  0
166  0
167  0
168  0
169  0
170  0
171  0
172  0
173  0
174  0
175  0
176  0
177  0
178  1
179  4
180  58
181  146
182  134
183  136
184  329
185  551
186  627
187  405
188  265
189  137
190  113
191  99
192  60
193  65
194  71
195  61
196  67
197  41
198  52
199  48
200  58
201  55
202  52
203  48
204  45
205  71
206  56
207  49
208  56
209  59
210  59
211  49
212  53
213  42
214  50
215  47
216  66
217  50
218  44
219  55
220  62
221  52
222  52
223  47
224  51
225  41
226  35
227  53
228  45
229  55
230  50
231  57
232  53
233  58
234  42
235  38
236  56
237  51
238  56
239  38
240  56
241  58
242  53
243  49
244  52
245  57
246  44
247  59
248  55
249  46
250  45
251  46
252  60
253  49
254  54
255  34
256  55
257  45
258  51
259  55
260  44
261  53
262  60
263  49
264  46
265  53
266  63
267  51
268  60
269  51
270  53
271  49
272  49
273  55
274  48
275  53
276  45
277  64
278  55
279  46
280  48
281  48
282  64
283  47
284  50
285  52
286  49
287  50
288  47
289  51
290  46
291  56
292  50
293  41
294  42
295  42
296  48
297  57
298  48
299  48
300  69
301  50
302  41
303  44
304  53
305  53
306  57
307  39
308  52
309  51
310  55
311  55
312  49
313  49
314  57
315  38
316  41
317  48
318  61
319  48
320  58
321  51
322  64
323  57
324  63
325  42
326  57
327  53
328  41
329  45
330  56
331  58
332  46
333  57
334  49
335  63
336  53
337  63
338  39
339  55
340  60
341  54
342  48
343  58
344  49
345  46
346  52
347  57
348  44
349  48
350  46
351  57
352  54
353  48
354  41
355  66
356  56
357  56
358  48
359  42
360  50
361  44
362  48
363  50
364  48
365  51
366  47
367  49
368  37
369  53
370  57
371  51
372  45
373  51
374  42
375  54
376  52
377  60
378  59
379  59
380  44
381  47
382  43
383  58
384  59
385  38
386  51
387  64
388  45
389  43
390  48
391  47
392  54
393  50
394  55
395  43
396  51
397  52
398  49
399  65
400  51
401  50
402  49
403  38
404  53
405  51
406  40
407  38
408  57
409  55
410  50
411  51
412  53
413  51
414  55
415  58
416  52
417  40
418  48
419  57
420  46
421  48
422  56
423  64
424  43
425  61
426  36
427  61
428  47
429  55
430  50
431  53
432  41
433  57
434  57
435  46
436  55
437  51
438  49
439  52
440  48
441  52
442  44
443  49
444  45
445  46
446  63
447  39
448  57
449  57
450  49
451  63
452  52
453  59
454  46
455  44
456  58
457  52
458  43
459  59
460  49
461  48
462  59
463  50
464  48
465  46
466  45
467  64
468  53
469  56
470  44
471  54
472  38
473  58
474  40
475  44
476  53
477  54
478  44
479  48
480  41
481  46
482  56
483  57
484  52
485  49
486  51
487  57
488  47
489  48
490  49
491  52
492  52
493  57
494  38
495  46
496  71
497  48
498  49
499  48
500  58
501  39
502  42
503  49
504  43
505  51
506  55
507  53
508  54
509  61
510  45
511  48
512  55
513  56
514  49
515  34
516  38
517  47
518  42
519  55
520  59
521  45
522  48
523  47
524  43
525  59
526  51
527  46
528  61
529  43
530  51
531  64
532  45
533  49
534  42
535  50
536  49
537  54
538  38
539  69
540  52
541  45
542  49
543  65
544  51
545  57
546  58
547  42
548  45
549  49
550  49
551  49
552  44
553  66
554  48
555  43
556  57
557  47
558  42
559  55
560  49
561  47
562  36
563  63
564  57
565  50
566  57
567  53
568  54
569  45
570  43
571  58
572  48
573  53
574  40
575  52
576  62
577  47
578  45
579  62
580  43
581  52
582  47
583  45
584  43
585  53
586  41
587  67
588  45
589  57
590  54
591  48
592  49
593  43
594  56
595  51
596  46
597  65
598  40
599  60
600  59
601  43
602  52
603  57
604  46
605  45
606  46
607  54
608  44
609  55
610  40
611  61
612  61
613  39
614  54
615  46
616  49
617  58
618  46
619  54
620  54
621  47
622  59
623  51
624  47
625  55
626  62
627  48
628  51
629  59
630  63
631  54
632  50
633  60
634  57
635  67
636  37
637  56
638  47
639  42
640  45
641  44
642  51
643  51
644  49
645  44
646  58
647  53
648  52
649  54
650  39
651  59
652  69
653  56
654  50
655  43
656  49
657  49
658  42
659  64
660  47
661  55
662  57
663  47
664  57
665  60
666  55
667  69
668  52
669  59
670  59
671  55
672  70
673  59
674  50
675  49
676  60
677  60
678  40
679  56
680  40
681  49
682  51
683  51
684  46
685  49
686  53
687  47
688  40
689  55
690  53
691  57
692  49
693  48
694  54
695  47
696  47
697  51
698  57
699  57
700  65
701  57
702  53
703  65
704  54
705  64
706  39
707  44
708  52
709  52
710  73
711  41
712  59
713  45
714  46
715  64
716  50
717  53
718  62
719  58
720  56
721  45
722  52
723  37
724  48
725  54
726  53
727  58
728  54
729  65
730  65
731  43
732  63
733  49
734  52
735  62
736  50
737  64
738  59
739  53
740  34
741  62
742  57
743  60
744  67
745  60
746  42
747  61
748  50
749  53
750  49
751  52
752  55
753  49
754  41
755  52
756  56
757  66
758  48
759  43
760  41
761  60
762  51
763  66
764  50
765  48
766  44
767  62
768  61
769  61
770  60
771  57
772  61
773  42
774  48
775  55
776  48
777  57
778  44
779  52
780  52
781  48
782  51
783  52
784  59
785  54
786  57
787  47
788  61
789  53
790  46
791  49
792  55
793  37
794  41
795  58
796  46
797  61
798  55
799  49
800  51
801  43
802  61
803  46
804  42
805  44
806  54
807  52
808  61
809  52
810  48
811  49
812  47
813  46
814  67
815  54
816  53
817  40
818  57
819  43
820  50
821  45
822  46
823  49
824  47
825  56
826  45
827  45
828  42
829  51
830  43
831  61
832  49
833  41
834  63
835  39
836  42
837  51
838  59
839  53
840  59
841  55
842  46
843  50
844  54
845  55
846  51
847  54
848  60
849  56
850  53
851  44
852  58
853  56
854  55
855  53
856  44
857  50
858  37
859  48
860  60
861  61
862  46
863  42
864  59
865  62
866  63
867  40
868  51
869  48
870  38
871  59
872  59
873  52
874  56
875  49
876  53
877  51
878  48
879  44
880  56
881  56
882  46
883  47
884  41
885  54
886  35
887  62
888  43
889  47
890  51
891  47
892  50
893  60
894  41
895  56
896  46
897  54
898  45
899  50
900  63
901  44
902  51
903  59
904  66
905  51
906  53
907  41
908  45
909  44
910  55
911  61
912  46
913  54
914  59
915  52
916  64
917  47
918  53
919  58
920  59
921  50
922  58
923  40
924  47
925  58
926  58
927  62
928  41
929  60
930  51
931  62
932  53
933  52
934  67
935  53
936  47
937  55
938  54
939  47
940  49
941  60
942  43
943  60
944  49
945  43
946  40
947  42
948  50
949  37
950  54
951  38
952  46
953  35
954  48
955  52
956  53
957  54
958  45
959  44
960  38
961  50
962  50
963  57
964  51
965  54
966  44
967  43
968  51
969  55
970  37
971  48
972  35
973  48
974  42
975  39
976  53
977  40
978  49
979  49
980  63
981  51
982  50
983  52
984  52
985  53
986  57
987  61
988  48
989  63
990  56
991  48
992  50
993  50
994  53
995  45
996  52
997  45
998  41
999  56
1000  64
1001  43
1002  62
1003  37
1004  48
1005  45
1006  51
1007  42
1008  39
1009  42
1010  45
1011  64
1012  58
1013  53
1014  62
1015  54
1016  62
1017  48
1018  46
1019  56
1020  40
1021  33
1022  52
1023  46
1024  56
1025  48
1026  46
1027  61
1028  57
1029  58
1030  63
1031  45
1032  50
1033  46
1034  53
1035  58
1036  53
1037  49
1038  58
1039  55
1040  43
1041  36
1042  52
1043  42
1044  58
1045  58
1046  61
1047  42
1048  55
1049  42
1050  55
1051  48
1052  50
1053  60
1054  52
1055  62
1056  53
1057  35
1058  55
1059  59
1060  33
1061  54
1062  50
1063  44
1064  63
1065  52
1066  46
1067  62
1068  47
1069  53
1070  51
1071  58
1072  45
1073  58
1074  55
1075  64
1076  34
1077  52
1078  50
1079  41
1080  48
1081  46
1082  47
1083  55
1084  46
1085  47
1086  49
1087  54
1088  50
1089  53
1090  41
1091  40
1092  56
1093  49
1094  51
1095  46
1096  40
1097  54
1098  48
1099  57
1100  40
1101  53
1102  53
1103  40
1104  64
1105  45
1106  59
1107  53
1108  54
1109  55
1110  47
1111  36
1112  36
1113  53
1114  62
1115  48
1116  50
1117  57
1118  52
1119  44
1120  54
1121  51
1122  48
1123  46
1124  44
1125  50
1126  55
1127  54
1128  51
1129  60
1130  49
1131  47
1132  59
1133  62
1134  55
1135  58
1136  59
1137  45
1138  47
1139  41
1140  52
1141  40
1142  51
1143  38
1144  40
1145  43
1146  70
1147  49
1148  57
1149  46
1150  49
1151  51
1152  65
1153  51
1154  58
1155  55
1156  40
1157  41
1158  49
1159  50
1160  55
1161  52
1162  55
1163  57
1164  41
1165  49
1166  54
1167  62
1168  58
1169  62
1170  49
1171  65
1172  51
1173  41
1174  52
1175  46
1176  51
1177  48
1178  51
1179  48
1180  53
1181  44
1182  59
1183  52
1184  55
1185  49
1186  45
1187  47
1188  65
1189  58
1190  46
1191  44
1192  57
1193  50
1194  60
1195  52
1196  61
1197  53
1198  48
1199  59
1200  50
1201  49
1202  54
1203  44
1204  55
1205  43
1206  53
1207  62
1208  54
1209  52
1210  53
1211  52
1212  49
1213  53
1214  53
1215  43
1216  41
1217  41
1218  37
1219  45
1220  63
1221  55
1222  59
1223  51
1224  62
1225  63
1226  60
1227  48
1228  52
1229  47
1230  50
1231  51
1232  60
1233  56
1234  42
1235  55
1236  51
1237  48
1238  54
1239  51
1240  48
1241  56
1242  57
1243  55
1244  43
1245  67
1246  65
1247  56
1248  47
1249  61
1250  46
1251  52
1252  49
1253  50
1254  44
1255  50
1256  53
1257  59
1258  52
1259  45
1260  62
1261  47
1262  68
1263  61
1264  53
1265  53
1266  40
1267  47
1268  55
1269  53
1270  42
1271  40
1272  41
1273  61
1274  40
1275  50
1276  42
1277  49
1278  48
1279  57
1280  38
1281  58
1282  58
1283  43
1284  48
1285  47
1286  44
1287  54
1288  52
1289  49
1290  65
1291  57
1292  49
1293  64
1294  62
1295  54
1296  60
1297  46
1298  58
1299  51
1300  43
1301  62
1302  52
1303  51
1304  43
1305  48
1306  45
1307  55
1308  54
1309  50
1310  50
1311  53
1312  59
1313  45
1314  47
1315  54
1316  58
1317  57
1318  61
1319  51
1320  47
1321  55
1322  51
1323  53
1324  62
1325  61
1326  61
1327  45
1328  52
1329  49
1330  50
1331  43
1332  62
1333  62
1334  62
1335  59
1336  65
1337  51
1338  51
1339  59
1340  52
1341  55
1342  68
1343  55
1344  55
1345  60
1346  54
1347  52
1348  46
1349  61
1350  58
1351  42
1352  52
1353  55
1354  65
1355  56
1356  50
1357  57
1358  54
1359  59
1360  64
1361  61
1362  52
1363  61
1364  59
1365  55
1366  43
1367  48
1368  55
1369  52
1370  56
1371  51
1372  55
1373  41
1374  46
1375  54
1376  55
1377  49
1378  50
1379  46
1380  55
1381  56
1382  62
1383  45
1384  59
1385  54
1386  58
1387  46
1388  49
1389  46
1390  60
1391  54
1392  49
1393  49
1394  39
1395  62
1396  50
1397  69
1398  59
1399  57
1400  49
1401  58
1402  43
1403  54
1404  71
1405  69
1406  60
1407  55
1408  40
1409  48
1410  48
1411  73
1412  54
1413  55
1414  51
1415  51
1416  50
1417  44
1418  50
1419  52
1420  58
1421  54
1422  48
1423  51
1424  53
1425  62
1426  45
1427  51
1428  68
1429  55
1430  60
1431  36
1432  75
1433  45
1434  58
1435  57
1436  57
1437  41
1438  65
1439  52
1440  64
1441  53
1442  62
1443  68
1444  48
1445  55
1446  55
1447  58
1448  54
1449  60
1450  50
1451  55
1452  48
1453  40
1454  51
1455  64
1456  54
1457  47
1458  54
1459  57
1460  52
1461  62
1462  48
1463  59
1464  53
1465  59
1466  57
1467  45
1468  33
1469  55
1470  59
1471  58
1472  53
1473  52
1474  47
1475  51
1476  67
1477  61
1478  49
1479  55
1480  49
1481  59
1482  51
1483  55
1484  50
1485  58
1486  47
1487  36
1488  45
1489  54
1490  47
1491  57
1492  63
1493  44
1494  46
1495  43
1496  43
1497  48
1498  39
1499  55
1500  43
1501  60
1502  49
1503  56
1504  48
1505  57
1506  48
1507  54
1508  53
1509  42
1510  51
1511  57
1512  61
1513  50
1514  61
1515  55
1516  43
1517  36
1518  64
1519  48
1520  45
1521  58
1522  53
1523  50
1524  49
1525  66
1526  50
1527  47
1528  54
1529  58
1530  64
1531  58
1532  46
1533  52
1534  46
1535  53
1536  52
1537  40
1538  53
1539  51
1540  50
1541  47
1542  42
1543  59
1544  62
1545  42
1546  66
1547  60
1548  54
1549  51
1550  63
1551  50
1552  55
1553  53
1554  60
1555  47
1556  63
1557  47
1558  50
1559  54
1560  49
1561  61
1562  59
1563  41
1564  49
1565  37
1566  53
1567  51
1568  45
1569  40
1570  58
1571  69
1572  47
1573  49
1574  44
1575  52
1576  59
1577  40
1578  56
1579  46
1580  54
1581  51
1582  59
1583  50
1584  49
1585  48
1586  58
1587  56
1588  59
1589  46
1590  64
1591  56
1592  49
1593  55
1594  40
1595  51
1596  47
1597  50
1598  54
1599  63
1600  53
1601  51
1602  52
1603  57
1604  57
1605  40
1606  60
1607  61
1608  54
1609  55
1610  55
1611  45
1612  58
1613  65
1614  53
1615  59
1616  51
1617  55
1618  41
1619  44
1620  43
1621  51
1622  64
1623  55
1624  52
1625  61
1626  43
1627  55
1628  53
1629  38
1630  51
1631  42
1632  61
1633  49
1634  57
1635  60
1636  40
1637  63
1638  50
1639  54
1640  40
1641  36
1642  53
1643  55
1644  67
1645  61
1646  50
1647  49
1648  52
1649  46
1650  53
1651  43
1652  51
1653  38
1654  61
1655  49
1656  58
1657  66
1658  48
1659  40
1660  51
1661  45
1662  36
1663  51
1664  50
1665  51
1666  49
1667  40
1668  50
1669  49
1670  62
1671  53
1672  48
1673  45
1674  51
1675  53
1676  49
1677  40
1678  39
1679  36
1680  56
1681  53
1682  53
1683  41
1684  47
1685  63
1686  60
1687  57
1688  60
1689  47
1690  51
1691  47
1692  54
1693  55
1694  49
1695  55
1696  43
1697  53
1698  49
1699  46
1700  49
1701  51
1702  58
1703  57
1704  50
1705  54
1706  51
1707  52
1708  51
1709  55
1710  51
1711  39
1712  54
1713  52
1714  57
1715  51
1716  40
1717  47
1718  58
1719  49
1720  61
1721  67
1722  52
1723  47
1724  47
1725  72
1726  57
1727  46
1728  40
1729  50
1730  48
1731  43
1732  46
1733  41
1734  42
1735  51
1736  41
1737  45
1738  46
1739  45
1740  56
1741  50
1742  53
1743  47
1744  59
1745  52
1746  55
1747  64
1748  53
1749  39
1750  50
1751  53
1752  53
1753  43
1754  69
1755  50
1756  62
1757  48
1758  44
1759  49
1760  60
1761  45
1762  52
1763  48
1764  48
1765  56
1766  49
1767  53
1768  44
1769  71
1770  53
1771  48
1772  48
1773  49
1774  56
1775  44
1776  51
1777  57
1778  51
1779  57
1780  50
1781  60
1782  46
1783  50
1784  46
1785  36
1786  28
1787  49
1788  54
1789  54
1790  59
1791  48
1792  47
1793  51
1794  50
1795  46
1796  57
1797  54
1798  44
1799  44
1800  59
1801  53
1802  45
1803  60
1804  46
1805  53
1806  47
1807  39
1808  58
1809  58
1810  59
1811  48
1812  59
1813  57
1814  46
1815  59
1816  45
1817  49
1818  41
1819  56
1820  55
1821  47
1822  40
1823  49
1824  52
1825  51
1826  53
1827  49
1828  60
1829  41
1830  58
1831  56
1832  43
1833  55
1834  54
1835  44
1836  36
1837  61
1838  48
1839  42
1840  59
1841  49
1842  43
1843  47
1844  62
1845  50
1846  39
1847  53
1848  49
1849  48
1850  45
1851  45
1852  50
1853  62
1854  56
1855  56
1856  42
1857  46
1858  45
1859  52
1860  40
1861  56
1862  55
1863  52
1864  44
1865  49
1866  47
1867  38
1868  53
1869  51
1870  58
1871  48
1872  64
1873  50
1874  37
1875  54
1876  54
1877  45
1878  52
1879  41
1880  51
1881  55
1882  53
1883  58
1884  60
1885  45
1886  47
1887  45
1888  44
1889  50
1890  41
1891  48
1892  59
1893  49
1894  46
1895  49
1896  62
1897  46
1898  57
1899  58
1900  55
1901  49
1902  35
1903  62
1904  60
1905  43
1906  52
1907  53
1908  46
1909  50
1910  58
1911  74
1912  52
1913  50
1914  47
1915  52
1916  41
1917  48
1918  55
1919  52
1920  44
1921  48
1922  53
1923  52
1924  52
1925  48
1926  42
1927  57
1928  55
1929  75
1930  49
1931  51
1932  63
1933  65
1934  52
1935  57
1936  47
1937  55
1938  58
1939  57
1940  47
1941  58
1942  51
1943  40
1944  58
1945  34
1946  46
1947  49
1948  54
1949  48
1950  51
1951  35
1952  37
1953  62
1954  51
1955  48
1956  58
1957  66
1958  54
1959  48
1960  57
1961  52
1962  60
1963  39
1964  41
1965  49
1966  53
1967  50
1968  59
1969  52
1970  67
1971  58
1972  61
1973  43
1974  51
1975  58
1976  49
1977  63
1978  47
1979  53
1980  56
1981  52
1982  49
1983  41
1984  68
1985  43
1986  53
1987  63
1988  43
1989  54
1990  61
1991  56
1992  51
1993  56
1994  60
1995  54
1996  56
1997  45
1998  46
1999  61
2000  55
2001  54
2002  65
2003  62
2004  45
2005  50
2006  49
2007  52
2008  53
2009  54
2010  48
2011  54
2012  51
2013  44
2014  41
2015  45
2016  48
2017  40
2018  47
2019  46
2020  51
2021  35
2022  51
2023  65
2024  57
2025  52
2026  51
2027  48
2028  50
2029  57
2030  53
2031  50
2032  53
2033  56
2034  62
2035  51
2036  52
2037  51
2038  51
2039  59
2040  44
2041  60
2042  53
2043  46
2044  51
2045  48
2046  45
2047  57
2048  48
2049  52
2050  53
2051  43
2052  61
2053  53
2054  48
2055  56
2056  54
2057  36
2058  47
2059  54
2060  56
2061  38
2062  45
2063  54
2064  45
2065  48
2066  39
2067  59
2068  51
2069  54
2070  36
2071  47
2072  40
2073  50
2074  41
2075  55
2076  45
2077  52
2078  68
2079  59
2080  50
2081  39
2082  48
2083  55
2084  59
2085  44
2086  53
2087  56
2088  53
2089  45
2090  44
2091  31
2092  45
2093  53
2094  55
2095  45
2096  51
2097  44
2098  35
2099  59
2100  63
2101  44
2102  55
2103  41
2104  52
2105  53
2106  50
2107  47
2108  42
2109  47
2110  52
2111  54
2112  51
2113  52
2114  50
2115  68
2116  75
2117  49
2118  61
2119  55
2120  51
2121  45
2122  55
2123  41
2124  56
2125  50
2126  63
2127  47
2128  64
2129  62
2130  40
2131  41
2132  61
2133  45
2134  62
2135  48
2136  48
2137  60
2138  56
2139  54
2140  61
2141  45
2142  52
2143  51
2144  49
2145  47
2146  58
2147  55
2148  59
2149  61
2150  51
2151  51
2152  55
2153  51
2154  42
2155  50
2156  68
2157  45
2158  50
2159  50
2160  56
2161  54
2162  47
2163  37
2164  43
2165  60
2166  55
2167  51
2168  51
2169  45
2170  52
2171  61
2172  57
2173  56
2174  53
2175  61
2176  60
2177  53
2178  43
2179  44
2180  48
2181  49
2182  59
2183  58
2184  66
2185  58
2186  64
2187  68
2188  56
2189  52
2190  54
2191  47
2192  60
2193  50
2194  45
2195  43
2196  54
2197  47
2198  53
2199  62
2200  73
2201  65
2202  46
2203  62
2204  49
2205  46
2206  47
2207  52
2208  56
2209  52
2210  49
2211  47
2212  61
2213  55
2214  52
2215  54
2216  59
2217  59
2218  42
2219  54
2220  52
2221  58
2222  44
2223  49
2224  40
2225  44
2226  47
2227  38
2228  39
2229  42
2230  41
2231  60
2232  59
2233  48
2234  64
2235  49
2236  70
2237  52
2238  47
2239  54
2240  60
2241  57
2242  52
2243  50
2244  48
2245  45
2246  47
2247  52
2248  64
2249  64
2250  58
2251  73
2252  48
2253  41
2254  47
2255  64
2256  63
2257  45
2258  65
2259  57
2260  51
2261  67
2262  52
2263  59
2264  66
2265  63
2266  52
2267  47
2268  48
2269  48
2270  55
2271  49
2272  50
2273  60
2274  46
2275  50
2276  66
2277  44
2278  53
2279  60
2280  41
2281  47
2282  44
2283  56
2284  50
2285  60
2286  51
2287  47
2288  48
2289  73
2290  46
2291  60
2292  49
2293  35
2294  60
2295  53
2296  59
2297  41
2298  55
2299  61
2300  57
2301  62
2302  51
2303  60
2304  61
2305  51
2306  50
2307  41
2308  54
2309  39
2310  53
2311  51
2312  53
2313  56
2314  54
2315  63
2316  45
2317  46
2318  50
2319  60
2320  63
2321  49
2322  50
2323  48
2324  39
2325  60
2326  41
2327  58
2328  50
2329  53
2330  66
2331  38
2332  50
2333  63
2334  45
2335  45
2336  55
2337  52
2338  64
2339  52
2340  43
2341  52
2342  49
2343  48
2344  46
2345  56
2346  58
2347  43
2348  52
2349  48
2350  47
2351  47
2352  48
2353  42
2354  52
2355  62
2356  51
2357  54
2358  40
2359  52
2360  49
2361  40
2362  49
2363  50
2364  57
2365  56
2366  51
2367  51
2368  40
2369  43
2370  47
2371  44
2372  47
2373  47
2374  49
2375  63
2376  46
2377  56
2378  56
2379  58
2380  54
2381  47
2382  51
2383  53
2384  44
2385  54
2386  46
2387  54
2388  48
2389  50
2390  57
2391  43
2392  50
2393  66
2394  53
2395  43
2396  40
2397  58
2398  47
2399  47
2400  56
2401  57
2402  47
2403  41
2404  42
2405  55
2406  54
2407  49
2408  57
2409  55
2410  50
2411  56
2412  51
2413  44
2414  42
2415  57
2416  42
2417  53
2418  39
2419  53
2420  47
2421  49
2422  60
2423  69
2424  53
2425  63
2426  61
2427  55
2428  41
2429  39
2430  50
2431  54
2432  50
2433  44
2434  49
2435  46
2436  46
2437  49
2438  53
2439  49
2440  48
2441  46
2442  48
2443  46
2444  60
2445  54
2446  64
2447  51
2448  58
2449  48
2450  47
2451  53
2452  57
2453  62
2454  57
2455  53
2456  63
2457  48
2458  47
2459  55
2460  55
2461  59
2462  58
2463  63
2464  63
2465  53
2466  53
2467  55
2468  48
2469  60
2470  49
2471  56
2472  52
2473  47
2474  56
2475  60
2476  47
2477  52
2478  52
2479  59
2480  54
2481  52
2482  53
2483  54
2484  53
2485  61
2486  64
2487  46
2488  52
2489  55
2490  58
2491  52
2492  66
2493  52
2494  44
2495  59
2496  56
2497  52
2498  64
2499  58
2500  53
2501  66
2502  51
2503  56
2504  47
2505  52
2506  48
2507  50
2508  66
2509  50
2510  48
2511  46
2512  60
2513  54
2514  49
2515  73
2516  48
2517  43
2518  50
2519  30
2520  50
2521  48
2522  66
2523  50
2524  51
2525  41
2526  41
2527  65
2528  62
2529  56
2530  50
2531  52
2532  54
2533  49
2534  42
2535  58
2536  55
2537  41
2538  53
2539  54
2540  51
2541  72
2542  58
2543  49
2544  57
2545  59
2546  54
2547  66
2548  47
2549  63
2550  45
2551  46
2552  40
2553  48
2554  48
2555  47
2556  50
2557  49
2558  46
2559  59
2560  63
2561  52
2562  48
2563  66
2564  43
2565  52
2566  53
2567  36
2568  45
2569  59
2570  47
2571  52
2572  52
2573  50
2574  48
2575  44
2576  60
2577  48
2578  36
2579  53
2580  47
2581  51
2582  49
2583  37
2584  49
2585  42
2586  48
2587  58
2588  58
2589  47
2590  60
2591  61
2592  54
2593  45
2594  54
2595  50
2596  51
2597  49
2598  43
2599  63
2600  49
2601  62
2602  53
2603  49
2604  48
2605  57
2606  49
2607  57
2608  56
2609  57
2610  57
2611  51
2612  52
2613  55
2614  57
2615  51
2616  60
2617  58
2618  49
2619  41
2620  54
2621  38
2622  47
2623  55
2624  44
2625  48
2626  65
2627  50
2628  51
2629  49
2630  47
2631  49
2632  63
2633  46
2634  61
2635  46
2636  51
2637  51
2638  53
2639  45
2640  42
2641  43
2642  47
2643  49
2644  56
2645  49
2646  53
2647  58
2648  51
2649  51
2650  57
2651  52
2652  44
2653  44
2654  46
2655  48
2656  43
2657  46
2658  33
2659  42
2660  43
2661  50
2662  43
2663  43
2664  47
2665  47
2666  61
2667  39
2668  37
2669  55
2670  49
2671  46
2672  55
2673  57
2674  54
2675  44
2676  60
2677  45
2678  48
2679  48
2680  60
2681  52
2682  33
2683  53
2684  56
2685  42
2686  60
2687  48
2688  53
2689  39
2690  50
2691  55
2692  52
2693  46
2694  42
2695  53
2696  55
2697  52
2698  55
2699  63
2700  52
2701  54
2702  45
2703  67
2704  57
2705  56
2706  48
2707  62
2708  55
2709  60
2710  47
2711  51
2712  40
2713  52
2714  45
2715  46
2716  46
2717  44
2718  33
2719  43
2720  58
2721  43
2722  54
2723  50
2724  42
2725  57
2726  44
2727  42
2728  53
2729  48
2730  62
2731  56
2732  62
2733  53
2734  53
2735  50
2736  51
2737  64
2738  53
2739  36
2740  59
2741  48
2742  51
2743  60
2744  54
2745  61
2746  50
2747  58
2748  40
2749  50
2750  56
2751  44
2752  51
2753  54
2754  49
2755  50
2756  46
2757  55
2758  44
2759  63
2760  40
2761  54
2762  52
2763  50
2764  50
2765  54
2766  65
2767  56
2768  51
2769  55
2770  42
2771  55
2772  62
2773  51
2774  52
2775  52
2776  57
2777  56
2778  43
2779  52
2780  53
2781  43
2782  45
2783  55
2784  59
2785  50
2786  47
2787  40
2788  48
2789  35
2790  58
2791  48
2792  56
2793  53
2794  51
2795  45
2796  47
2797  36
2798  59
2799  61
2800  58
2801  52
2802  56
2803  48
2804  57
2805  50
2806  51
2807  45
2808  54
2809  44
2810  48
2811  46
2812  58
2813  51
2814  51
2815  58
2816  57
2817  47
2818  48
2819  53
2820  46
2821  58
2822  46
2823  60
2824  56
2825  47
2826  52
2827  43
2828  52
2829  55
2830  37
2831  43
2832  61
2833  46
2834  46
2835  55
2836  60
2837  36
2838  49
2839  46
2840  46
2841  52
2842  58
2843  43
2844  45
2845  40
2846  49
2847  54
2848  48
2849  47
2850  60
2851  49
2852  48
2853  56
2854  45
2855  60
2856  63
2857  56
2858  43
2859  76
2860  36
2861  49
2862  60
2863  38
2864  61
2865  55
2866  56
2867  60
2868  49
2869  52
2870  46
2871  43
2872  58
2873  43
2874  50
2875  69
2876  53
2877  48
2878  43
2879  59
2880  60
2881  40
2882  53
2883  65
2884  42
2885  53
2886  44
2887  61
2888  61
2889  40
2890  52
2891  47
2892  41
2893  54
2894  44
2895  50
2896  42
2897  58
2898  45
2899  50
2900  48
2901  60
2902  50
2903  51
2904  41
2905  56
2906  49
2907  42
2908  43
2909  58
2910  49
2911  48
2912  49
2913  48
2914  51
2915  54
2916  56
2917  51
2918  48
2919  65
2920  48
2921  64
2922  42
2923  45
2924  51
2925  44
2926  50
2927  50
2928  44
2929  62
2930  52
2931  61
2932  54
2933  54
2934  44
2935  53
2936  60
2937  56
2938  45
2939  54
2940  42
2941  42
2942  36
2943  68
2944  43
2945  53
2946  54
2947  64
2948  56
2949  59
2950  51
2951  45
2952  57
2953  48
2954  46
2955  44
2956  48
2957  42
2958  57
2959  60
2960  66
2961  54
2962  52
2963  62
2964  41
2965  58
2966  52
2967  46
2968  48
2969  45
2970  50
2971  52
2972  51
2973  44
2974  55
2975  57
2976  47
2977  47
2978  34
2979  56
2980  46
2981  54
2982  61
2983  46
2984  47
2985  45
2986  47
2987  62
2988  39
2989  50
2990  46
2991  60
2992  43
2993  51
2994  63
2995  39
2996  55
2997  54
2998  59
2999  62
3000  48
3001  44
3002  46
3003  54
3004  65
3005  46
3006  56
3007  51
3008  39
3009  46
3010  67
3011  48
3012  49
3013  47
3014  43
3015  39
3016  41
3017  51
3018  49
3019  49
3020  51
3021  51
3022  44
3023  54
3024  71
3025  63
3026  49
3027  47
3028  63
3029  54
3030  56
3031  57
3032  64
3033  54
3034  53
3035  56
3036  64
3037  46
3038  56
3039  60
3040  60
3041  53
3042  51
3043  46
3044  54
3045  56
3046  64
3047  49
3048  50
3049  54
3050  43
3051  54
3052  55
3053  59
3054  48
3055  56
3056  41
3057  58
3058  48
3059  54
3060  35
3061  52
3062  59
3063  61
3064  52
3065  60
3066  48
3067  49
3068  65
3069  70
3070  57
3071  42
3072  46
3073  38
3074  47
3075  50
3076  40
3077  56
3078  48
3079  52
3080  58
3081  51
3082  51
3083  54
3084  46
3085  48
3086  53
3087  59
3088  55
3089  46
3090  49
3091  56
3092  71
3093  57
3094  51
3095  44
3096  65
3097  60
3098  54
3099  69
3100  53
3101  52
3102  56
3103  62
3104  45
3105  56
3106  46
3107  53
3108  41
3109  54
3110  49
3111  47
3112  39
3113  46
3114  54
3115  49
3116  54
3117  47
3118  50
3119  57
3120  45
3121  57
3122  53
3123  44
3124  61
3125  59
3126  58
3127  46
3128  52
3129  46
3130  49
3131  40
3132  50
3133  55
3134  57
3135  52
3136  48
3137  64
3138  57
3139  53
3140  50
3141  58
3142  60
3143  54
3144  53
3145  64
3146  63
3147  48
3148  38
3149  41
3150  48
3151  64
3152  69
3153  55
3154  53
3155  45
3156  49
3157  58
3158  54
3159  37
3160  49
3161  51
3162  51
3163  62
3164  40
3165  49
3166  54
3167  50
3168  48
3169  49
3170  57
3171  53
3172  48
3173  55
3174  51
3175  52
3176  40
3177  49
3178  51
3179  42
3180  49
3181  44
3182  60
3183  58
3184  48
3185  46
3186  49
3187  63
3188  37
3189  56
3190  60
3191  48
3192  50
3193  51
3194  47
3195  46
3196  56
3197  55
3198  31
3199  52
3200  57
3201  62
3202  56
3203  56
3204  54
3205  36
3206  46
3207  43
3208  49
3209  60
3210  52
3211  51
3212  49
3213  43
3214  58
3215  65
3216  57
3217  57
3218  58
3219  49
3220  62
3221  46
3222  55
3223  60
3224  51
3225  62
3226  48
3227  56
3228  55
3229  51
3230  47
3231  61
3232  61
3233  52
3234  42
3235  51
3236  61
3237  69
3238  44
3239  49
3240  45
3241  53
3242  63
3243  43
3244  53
3245  48
3246  44
3247  51
3248  66
3249  42
3250  53
3251  45
3252  60
3253  64
3254  51
3255  66
3256  60
3257  47
3258  49
3259  46
3260  49
3261  53
3262  57
3263  74
3264  50
3265  57
3266  46
3267  60
3268  44
3269  54
3270  49
3271  45
3272  58
3273  48
3274  53
3275  51
3276  59
3277  45
3278  42
3279  45
3280  39
3281  49
3282  46
3283  54
3284  53
3285  48
3286  51
3287  58
3288  61
3289  62
3290  51
3291  49
3292  37
3293  52
3294  51
3295  69
3296  56
3297  59
3298  68
3299  53
3300  48
3301  53
3302  45
3303  43
3304  62
3305  63
3306  36
3307  54
3308  62
3309  35
3310  55
3311  50
3312  49
3313  44
3314  52
3315  45
3316  52
3317  47
3318  60
3319  49
3320  52
3321  47
3322  56
3323  55
3324  57
3325  52
3326  55
3327  67
3328  49
3329  56
3330  51
3331  48
3332  51
3333  66
3334  63
3335  71
3336  58
3337  67
3338  41
3339  66
3340  53
3341  50
3342  39
3343  37
3344  51
3345  58
3346  43
3347  40
3348  48
3349  50
3350  41
3351  42
3352  60
3353  62
3354  51
3355  52
3356  50
3357  51
3358  48
3359  60
3360  39
3361  51
3362  42
3363  50
3364  60
3365  36
3366  71
3367  53
3368  64
3369  45
3370  42
3371  63
3372  38
3373  50
3374  54
3375  61
3376  39
3377  55
3378  47
3379  47
3380  48
3381  45
3382  51
3383  58
3384  66
3385  52
3386  50
3387  55
3388  48
3389  60
3390  54
3391  55
3392  39
3393  50
3394  45
3395  39
3396  62
3397  57
3398  52
3399  45
3400  49
3401  44
3402  52
3403  53
3404  52
3405  61
3406  55
3407  50
3408  71
3409  52
3410  54
3411  50
3412  57
3413  51
3414  49
3415  52
3416  53
3417  50
3418  57
3419  47
3420  57
3421  44
3422  58
3423  46
3424  51
3425  50
3426  46
3427  60
3428  48
3429  41
3430  46
3431  54
3432  57
3433  50
3434  47
3435  48
3436  54
3437  42
3438  54
3439  58
3440  61
3441  49
3442  49
3443  33
3444  48
3445  56
3446  46
3447  48
3448  45
3449  42
3450  50
3451  58
3452  53
3453  54
3454  40
3455  58
3456  48
3457  47
3458  46
3459  47
3460  47
3461  52
3462  69
3463  44
3464  55
3465  49
3466  53
3467  38
3468  47
3469  65
3470  46
3471  49
3472  39
3473  41
3474  43
3475  29
3476  20
3477  19
3478  14
3479  9
3480  5
3481  1
3482  1
3483  1
3484  0
3485  0
3486  0
3487  0
3488  0
3489  0
3490  0
3491  0
3492  0
3493  0
3494  0
3495  0
3496  0
3497  0
3498  0
3499  0
3500  0
3501  0
3502  0
3503  0
3504  0
3505  0
3506  0
3507  0
3508  0
3509  0
3510  0
3511  0
3512  0
3513  0
3514  0
3515  0
3516  0
3517  0
3518  0
3519  0
3520  0
3521  0
3522  0
3523  0
3524  0
3525  0
3526  0
3527  0
3528  0
3529  0
3530  0
3531  0
3532  0
3533  0
3534  0
3535  0
3536  0
3537  0
3538  0
3539  0
3540  0
3541  0
3542  0
3543  0
3544  0
3545  0
3546  0
3547  0
3548  0
3549  0
3550  0
3551  0
3552  0
3553  0
3554  0
3555  0
3556  0
3557  0
3558  0
3559  0
3560  0
3561  0
3562  0
3563  0
3564  0
3565  0
3566  0
3567  0
3568  0
3569  0
3570  0
3571  0
3572  0
3573  0
3574  0
3575  0
3576  0
3577  0
3578  0
3579  0
3580  0
3581  0
3582  0
3583  0
3584  0
3585  0
3586  0
3587  0
3588  0
3589  0
3590  0
3591  0
3592  0
3593  0
3594  0
3595  0
3596  0
3597  0
3598  0
3599  0
3600  0
3601  0
3602  0
3603  0
3604  0
3605  0
3606  0
3607  0
3608  0
3609  0
3610  0
3611  0
3612  0
3613  0
3614  0
3615  0
3616  0
3617  0
3618  0
3619  0
3620  0
3621  0
3622  0
3623  0
3624  0
3625  0
3626  0
3627  0
3628  0
3629  0
3630  0
3631  0
3632  0
3633  0
3634  0
3635  0
3636  0
3637  0
3638  0
3639  0
3640  0
3641  0
3642  0
3643  0
3644  0
3645  0
3646  0
3647  0
3648  0
3649  0
3650  0
3651  0
3652  0
3653  0
3654  0
3655  0
3656  0
3657  0
3658  0
3659  0
3660  0
3661  0
3662  0
3663  0
3664  0
3665  0
3666  0
3667  0
3668  0
3669  0
3670  0
3671  0
3672  0
3673  0
3674  0
3675  0
3676  0
3677  0
3678  0
3679  0
3680  0
3681  0
3682  0
3683  0
3684  0
3685  0
3686  0
3687  0
3688  0
3689  0
3690  0
3691  0
3692  0
3693  0
3694  0
3695  0
3696  0
3697  0
3698  0
3699  0
3700  0
3701  0
3702  0
3703  0
3704  0
3705  0
3706  0
3707  0
3708  0
3709  0
3710  0
3711  0
3712  0
3713  0
3714  0
3715  0
3716  0
3717  0
3718  0
3719  0
3720  0
3721  0
3722  0
3723  0
3724  0
3725  0
3726  0
3727  0
3728  0
3729  0
3730  0
3731  0
3732  0
3733  0
3734  0
3735  0
3736  0
3737  0
3738  0
3739  0
3740  0
3741  0
3742  0
3743  0
3744  0
3745  0
3746  0
3747  0
3748  0
3749  0
3750  0
3751  0
3752  0
3753  0
3754  0
3755  0
3756  0
3757  0
3758  0
3759  0
3760  0
3761  0
3762  0
3763  0
3764  0
3765  0
3766  0
3767  0
3768  0
3769  0
3770  0
3771  0
3772  0
3773  0
3774  0
3775  0
3776  0
3777  0
3778  0
3779  0
3780  0
3781  0
3782  0
3783  0
3784  0
3785  0
3786  0
3787  0
3788  0
3789  0
3790  0
3791  0
3792  0
3793  0
3794  0
3795  0
3796  0
3797  0
3798  0
3799  0
3800  0
3801  0
3802  0
3803  0
3804  0
3805  0
3806  0
3807  0
3808  0
3809  0
3810  0
3811  0
3812  0
3813  0
3814  0
3815  0
3816  0
3817  0
3818  0
3819  0
3820  0
3821  0
3822  0
3823  0
3824  0
3825  0
3826  0
3827  0
3828  0
3829  0
3830  0
3831  0
3832  0
3833  0
3834  0
3835  0
3836  0
3837  0
3838  0
3839  0
3840  0
3841  0
3842  0
3843  0
3844  0
3845  0
3846  0
3847  0
3848  0
3849  0
3850  0
3851  0
3852  0
3853  0
3854  0
3855  0
3856  0
3857  0
3858  0
3859  0
3860  0
3861  0
3862  0
3863  0
3864  0
3865  0
3866  0
3867  0
3868  0
3869  0
3870  0
3871  0
3872  0
3873  0
3874  0
3875  0
3876  0
3877  0
3878  0
3879  0
3880  0
3881  0
3882  0
3883  0
3884  0
3885  0
3886  0
3887  0
3888  0
3889  0
3890  0
3891  0
3892  0
3893  0
3894  0
3895  0
3896  0
3897  0
3898  0
3899  0
3900  0
3901  0
3902  0
3903  0
3904  0
3905  0
3906  0
3907  0
3908  0
3909  0
3910  0
3911  0
3912  0
3913  0
3914  0
3915  0
3916  0
3917  0
3918  0
3919  0
3920  0
3921  0
3922  0
3923  0
3924  0
3925  0
3926  0
3927  0
3928  0
3929  0
3930  0
3931  0
3932  0
3933  0
3934  0
3935  0
3936  0
3937  0
3938  0
3939  0
3940  0
3941  0
3942  0
3943  0
3944  0
3945  0
3946  0
3947  0
3948  0
3949  0
3950  0
3951  0
3952  0
3953  0
3954  0
3955  0
3956  0
3957  0
3958  0
3959  0
3960  0
3961  0
3962  0
3963  0
3964  0
3965  0
3966  0
3967  0
3968  0
3969  0
3970  0
3971  0
3972  0
3973  0
3974  0
3975  0
3976  0
3977  0
3978  0
3979  0
3980  0
3981  0
3982  0
3983  0
3984  0
3985  0
3986  0
3987  0
3988  0
3989  0
3990  0
3991  0
3992  0
3993  0
3994  0
3995  0
3996  0
3997  0
3998  0
3999  0
4000  0
4001  0
4002  0
4003  0
4004  0
4005  0
4006  0
4007  0
4008  0
4009  0
4010  0
4011  0
4012  0
4013  0
4014  0
4015  0
4016  0
4017  0
4018  0
4019  0
4020  0
4021  0
4022  0
4023  0
4024  0
4025  0
4026  0
4027  0
4028  0
4029  0
4030  0
4031  0
4032  0
4033  0
4034  0
4035  0
4036  0
4037  0
4038  0
4039  0
4040  0
4041  0
4042  0
4043  0
4044  0
4045  0
4046  0
4047  0
4048  0
4049  0
4050  0
4051  0
4052  0
4053  0
4054  0
4055  0
4056  0
4057  0
4058  0
4059  0
4060  0
4061  0
4062  0
4063  0
4064  0
4065  0
4066  0
4067  0
4068  0
4069  0
4070  0
4071  0
4072  0
4073  0
4074  0
4075  0
4076  0
4077  0
4078  0
4079  0
4080  0
4081  0
4082  0
4083  0
4084  0
4085  0
4086  0
4087  0
4088  0
4089  0
4090  0
4091  0
4092  0
4093  0
4094  0
4095  0
