0  0
1  0
2  0
3  0
4  0
5  0
6  0
7  0
8  0
9  0
10  0
11  0
12  0
13  0
14  0
15  0
16  0
17  0
18  0
19  0
20  0
21  0
22  0
23  0
24  0
25  0
26  0
27  0
28  0
29  0
30  0
31  0
32  0
33  0
34  0
35  0
36  0
37  0
38  0
39  0
40  0
41  0
42  0
43  0
44  0
45  0
46  0
47  0
48  0
49  0
50  0
51  0
52  0
53  0
54  0
55  0
56  0
57  0
58  0
59  0
60  0
61  0
62  0
63  0
64  0
65  0
66  0
67  0
68  0
69  0
70  0
71  0
72  0
73  0
74  0
75  0
76  0
77  0
78  0
79  0
80  0
81  0
82  0
83  0
84  0
85  0
86  0
87  0
88  0
89  0
90  0
91  0
92  0
93  0
94  0
95  0
96  0
97  0
98  0
99  0
100  0
101  0
102  0
103  0
104  0
105  0
106  0
107  0
108  0
109  0
110  0
111  0
112  0
113  0
114  0
115  0
116  0
117  0
118  0
119  0
120  0
121  0
122  0
123  0
124  0
125  0
126  0
127  0
128  0
129  0
130  0
131  0
132  0
133  0
134  0
135  0
136  0
137  0
138  0
139  0
140  0
141  0
142  0
143  0
144  0
145  0
146  0
147  0
148  0
149  0
150  0
151  0
152  0
153  0
154  0
155  0
156  0
157  0
158  0
159  0
160  0
161  0
162  0
163  0
164  0
165  0
166  0
167  0
168  0
169  0
170  0
171  0
172  0
173  0
174  0
175  0
176  0
177  0
178  0
179  0
180  0
181  0
182  0
183  0
184  0
185  0
186  0
187  0
188  0
189  0
190  0
191  0
192  0
193  0
194  0
195  0
196  0
197  0
198  0
199  0
200  0
201  0
202  0
203  0
204  0
205  0
206  0
207  0
208  0
209  0
210  0
211  0
212  0
213  0
214  0
215  0
216  0
217  0
218  0
219  0
220  0
221  0
222  0
223  0
224  0
225  0
226  0
227  0
228  0
229  0
230  0
231  0
232  0
233  0
234  0
235  0
236  0
237  0
238  0
239  0
240  0
241  0
242  0
243  0
244  0
245  0
246  0
247  0
248  0
249  0
250  0
251  0
252  0
253  0
254  0
255  0
256  0
257  0
258  0
259  0
260  0
261  0
262  0
263  0
264  0
265  0
266  0
267  0
268  0
269  0
270  0
271  0
272  0
273  0
274  0
275  0
276  0
277  0
278  0
279  0
280  0
281  0
282  0
283  0
284  0
285  0
286  0
287  0
288  0
289  0
290  0
291  0
292  0
293  0
294  0
295  0
296  0
297  0
298  0
299  0
300  0
301  0
302  0
303  0
304  0
305  0
306  0
307  0
308  0
309  0
310  0
311  0
312  0
313  0
314  0
315  0
316  0
317  0
318  0
319  0
320  0
321  0
322  0
323  0
324  0
325  0
326  0
327  0
328  0
329  0
330  0
331  0
332  0
333  0
334  0
335  0
336  0
337  0
338  0
339  0
340  0
341  0
342  0
343  0
344  0
345  0
346  0
347  0
348  0
349  0
350  0
351  0
352  0
353  0
354  0
355  0
356  0
357  0
358  0
359  0
360  0
361  0
362  0
363  0
364  0
365  0
366  0
367  0
368  0
369  0
370  0
371  0
372  0
373  0
374  0
375  0
376  0
377  0
378  0
379  0
380  0
381  0
382  0
383  0
384  0
385  0
386  0
387  0
388  0
389  0
390  0
391  0
392  0
393  0
394  0
395  0
396  0
397  0
398  0
399  0
400  0
401  0
402  0
403  0
404  0
405  0
406  0
407  0
408  0
409  0
410  0
411  0
412  0
413  0
414  0
415  0
416  0
417  0
418  0
419  0
420  0
421  0
422  0
423  0
424  0
425  0
426  0
427  0
428  0
429  0
430  0
431  0
432  0
433  0
434  0
435  0
436  0
437  0
438  0
439  0
440  0
441  0
442  0
443  0
444  0
445  0
446  0
447  0
448  0
449  0
450  0
451  0
452  0
453  0
454  0
455  0
456  0
457  0
458  0
459  0
460  0
461  0
462  0
463  0
464  0
465  0
466  0
467  0
468  0
469  0
470  0
471  0
472  0
473  0
474  0
475  0
476  0
477  0
478  0
479  0
480  0
481  0
482  0
483  0
484  0
485  0
486  0
487  0
488  0
489  0
490  0
491  0
492  0
493  0
494  0
495  0
496  0
497  0
498  0
499  0
500  0
501  0
502  0
503  0
504  0
505  0
506  0
507  0
508  0
509  0
510  0
511  0
512  0
513  0
514  0
515  0
516  0
517  0
518  0
519  0
520  0
521  0
522  0
523  0
524  0
525  0
526  0
527  0
528  0
529  0
530  0
531  0
532  0
533  0
534  0
535  0
536  0
537  0
538  0
539  0
540  0
541  0
542  0
543  0
544  0
545  0
546  0
547  0
548  0
549  0
550  0
551  0
552  0
553  0
554  0
555  0
556  0
557  0
558  0
559  0
560  0
561  0
562  0
563  0
564  0
565  0
566  0
567  0
568  0
569  0
570  0
571  0
572  0
573  0
574  0
575  0
576  0
577  0
578  0
579  0
580  0
581  0
582  0
583  0
584  0
585  0
586  0
587  0
588  0
589  0
590  0
591  0
592  0
593  0
594  0
595  0
596  0
597  0
598  0
599  0
600  0
601  0
602  0
603  0
604  0
605  0
606  0
607  0
608  0
609  0
610  0
611  0
612  0
613  0
614  0
615  0
616  0
617  0
618  0
619  0
620  0
621  0
622  0
623  0
624  0
625  0
626  0
627  0
628  0
629  0
630  0
631  0
632  0
633  0
634  0
635  0
636  0
637  0
638  0
639  0
640  0
641  0
642  0
643  0
644  0
645  0
646  0
647  0
648  0
649  0
650  0
651  0
652  0
653  0
654  0
655  0
656  0
657  0
658  0
659  0
660  0
661  0
662  0
663  0
664  0
665  0
666  0
667  0
668  0
669  0
670  0
671  0
672  0
673  0
674  0
675  0
676  0
677  0
678  0
679  0
680  0
681  0
682  0
683  0
684  0
685  0
686  0
687  0
688  0
689  0
690  0
691  0
692  0
693  0
694  0
695  0
696  0
697  0
698  0
699  0
700  0
701  0
702  0
703  0
704  0
705  0
706  0
707  0
708  0
709  0
710  0
711  0
712  0
713  0
714  0
715  0
716  0
717  0
718  0
719  0
720  0
721  0
722  0
723  0
724  0
725  0
726  0
727  0
728  0
729  0
730  0
731  0
732  0
733  0
734  0
735  0
736  0
737  0
738  0
739  0
740  0
741  0
742  0
743  0
744  0
745  0
746  0
747  0
748  0
749  0
750  0
751  0
752  0
753  0
754  0
755  0
756  0
757  0
758  0
759  0
760  0
761  0
762  0
763  0
764  0
765  0
766  0
767  0
768  0
769  0
770  0
771  0
772  0
773  0
774  0
775  0
776  0
777  0
778  0
779  0
780  0
781  0
782  0
783  0
784  0
785  0
786  0
787  0
788  0
789  0
790  0
791  0
792  0
793  0
794  0
795  0
796  0
797  0
798  0
799  0
800  0
801  0
802  0
803  0
804  0
805  0
806  0
807  0
808  0
809  0
810  0
811  0
812  0
813  0
814  0
815  0
816  0
817  0
818  0
819  0
820  0
821  0
822  0
823  0
824  0
825  0
826  0
827  0
828  0
829  0
830  0
831  0
832  0
833  0
834  0
835  0
836  0
837  0
838  0
839  0
840  0
841  0
842  0
843  0
844  0
845  0
846  0
847  0
848  0
849  0
850  0
851  0
852  0
853  0
854  0
855  0
856  0
857  0
858  0
859  0
860  0
861  0
862  0
863  0
864  0
865  0
866  0
867  0
868  0
869  0
870  0
871  0
872  0
873  0
874  0
875  0
876  0
877  0
878  0
879  0
880  0
881  0
882  0
883  0
884  0
885  0
886  0
887  0
888  0
889  0
890  0
891  0
892  0
893  0
894  0
895  0
896  0
897  0
898  0
899  0
900  0
901  0
902  0
903  0
904  0
905  0
906  0
907  0
908  0
909  0
910  0
911  0
912  0
913  0
914  0
915  0
916  0
917  0
918  0
919  0
920  0
921  0
922  0
923  0
924  0
925  0
926  0
927  0
928  0
929  0
930  0
931  0
932  0
933  0
934  0
935  0
936  0
937  0
938  0
939  0
940  0
941  0
942  0
943  0
944  0
945  0
946  0
947  0
948  0
949  0
950  0
951  0
952  0
953  0
954  0
955  0
956  0
957  0
958  0
959  0
960  0
961  0
962  0
963  0
964  0
965  0
966  0
967  0
968  0
969  0
970  0
971  0
972  0
973  0
974  0
975  0
976  0
977  0
978  0
979  0
980  0
981  0
982  0
983  0
984  0
985  0
986  0
987  0
988  0
989  0
990  0
991  0
992  0
993  0
994  0
995  0
996  0
997  0
998  0
999  0
1000  0
1001  0
1002  0
1003  0
1004  0
1005  0
1006  0
1007  0
1008  0
1009  0
1010  0
1011  0
1012  0
1013  0
1014  0
1015  0
1016  0
1017  0
1018  0
1019  0
1020  0
1021  0
1022  0
1023  0
1024  0
1025  0
1026  0
1027  0
1028  0
1029  0
1030  0
1031  0
1032  0
1033  0
1034  0
1035  0
1036  0
1037  0
1038  0
1039  0
1040  0
1041  0
1042  0
1043  0
1044  0
1045  0
1046  0
1047  0
1048  0
1049  0
1050  0
1051  0
1052  0
1053  0
1054  0
1055  0
1056  0
1057  0
1058  0
1059  0
1060  0
1061  0
1062  0
1063  0
1064  0
1065  0
1066  0
1067  0
1068  0
1069  0
1070  0
1071  0
1072  0
1073  0
1074  0
1075  0
1076  0
1077  0
1078  0
1079  0
1080  0
1081  0
1082  0
1083  0
1084  0
1085  0
1086  0
1087  0
1088  0
1089  0
1090  0
1091  0
1092  0
1093  0
1094  0
1095  0
1096  0
1097  0
1098  0
1099  0
1100  0
1101  0
1102  0
1103  0
1104  0
1105  0
1106  0
1107  0
1108  0
1109  0
1110  0
1111  0
1112  0
1113  0
1114  0
1115  0
1116  0
1117  0
1118  0
1119  0
1120  0
1121  0
1122  0
1123  0
1124  0
1125  0
1126  0
1127  0
1128  0
1129  0
1130  0
1131  0
1132  0
1133  0
1134  0
1135  0
1136  0
1137  0
1138  0
1139  0
1140  0
1141  0
1142  0
1143  0
1144  0
1145  0
1146  0
1147  0
1148  0
1149  0
1150  0
1151  0
1152  0
1153  0
1154  0
1155  0
1156  0
1157  0
1158  0
1159  0
1160  0
1161  0
1162  0
1163  0
1164  0
1165  0
1166  0
1167  0
1168  0
1169  0
1170  0
1171  0
1172  0
1173  0
1174  0
1175  0
1176  0
1177  0
1178  0
1179  0
1180  0
1181  0
1182  0
1183  0
1184  0
1185  0
1186  0
1187  0
1188  0
1189  0
1190  0
1191  0
1192  0
1193  0
1194  0
1195  0
1196  0
1197  0
1198  0
1199  0
1200  0
1201  0
1202  0
1203  0
1204  0
1205  0
1206  0
1207  0
1208  0
1209  0
1210  0
1211  0
1212  0
1213  0
1214  0
1215  0
1216  0
1217  0
1218  0
1219  0
1220  0
1221  0
1222  0
1223  0
1224  0
1225  0
1226  0
1227  0
1228  0
1229  0
1230  0
1231  0
1232  0
1233  0
1234  0
1235  0
1236  0
1237  0
1238  0
1239  0
1240  0
1241  0
1242  0
1243  0
1244  0
1245  0
1246  0
1247  0
1248  0
1249  0
1250  0
1251  0
1252  0
1253  0
1254  0
1255  0
1256  0
1257  0
1258  0
1259  0
1260  0
1261  0
1262  0
1263  0
1264  0
1265  0
1266  0
1267  0
1268  0
1269  0
1270  0
1271  0
1272  0
1273  0
1274  0
1275  0
1276  0
1277  0
1278  0
1279  0
1280  0
1281  0
1282  0
1283  0
1284  0
1285  0
1286  0
1287  0
1288  0
1289  0
1290  0
1291  0
1292  0
1293  0
1294  0
1295  0
1296  0
1297  0
1298  0
1299  0
1300  0
1301  0
1302  0
1303  0
1304  0
1305  0
1306  0
1307  0
1308  0
1309  0
1310  0
1311  0
1312  0
1313  0
1314  0
1315  0
1316  0
1317  0
1318  0
1319  0
1320  0
1321  0
1322  0
1323  0
1324  0
1325  0
1326  0
1327  0
1328  0
1329  0
1330  0
1331  0
1332  0
1333  0
1334  0
1335  0
1336  0
1337  0
1338  0
1339  0
1340  0
1341  0
1342  0
1343  0
1344  0
1345  0
1346  0
1347  0
1348  0
1349  0
1350  0
1351  0
1352  0
1353  0
1354  0
1355  0
1356  0
1357  0
1358  0
1359  0
1360  0
1361  0
1362  0
1363  0
1364  0
1365  0
1366  0
1367  0
1368  0
1369  0
1370  0
1371  0
1372  0
1373  0
1374  0
1375  0
1376  0
1377  0
1378  0
1379  0
1380  0
1381  0
1382  0
1383  0
1384  0
1385  0
1386  0
1387  0
1388  0
1389  0
1390  0
1391  0
1392  0
1393  0
1394  0
1395  0
1396  0
1397  0
1398  0
1399  0
1400  0
1401  0
1402  0
1403  0
1404  0
1405  0
1406  0
1407  0
1408  0
1409  0
1410  0
1411  0
1412  0
1413  0
1414  0
1415  0
1416  0
1417  0
1418  0
1419  0
1420  0
1421  0
1422  0
1423  0
1424  0
1425  0
1426  0
1427  0
1428  0
1429  0
1430  0
1431  0
1432  0
1433  0
1434  0
1435  0
1436  0
1437  0
1438  0
1439  0
1440  0
1441  0
1442  0
1443  0
1444  0
1445  0
1446  0
1447  0
1448  0
1449  0
1450  0
1451  0
1452  0
1453  0
1454  0
1455  0
1456  0
1457  0
1458  0
1459  0
1460  0
1461  0
1462  0
1463  0
1464  0
1465  0
1466  0
1467  0
1468  0
1469  0
1470  0
1471  0
1472  0
1473  0
1474  0
1475  0
1476  0
1477  0
1478  0
1479  0
1480  0
1481  0
1482  0
1483  0
1484  0
1485  0
1486  0
1487  0
1488  0
1489  0
1490  0
1491  0
1492  0
1493  0
1494  0
1495  0
1496  0
1497  0
1498  0
1499  0
1500  0
1501  0
1502  0
1503  0
1504  0
1505  0
1506  0
1507  0
1508  0
1509  0
1510  0
1511  0
1512  0
1513  0
1514  0
1515  0
1516  0
1517  0
1518  0
1519  0
1520  0
1521  0
1522  0
1523  0
1524  0
1525  0
1526  0
1527  0
1528  0
1529  0
1530  0
1531  0
1532  0
1533  0
1534  0
1535  0
1536  0
1537  0
1538  0
1539  0
1540  0
1541  0
1542  0
1543  0
1544  0
1545  0
1546  0
1547  0
1548  0
1549  0
1550  0
1551  0
1552  0
1553  0
1554  0
1555  0
1556  0
1557  0
1558  0
1559  0
1560  0
1561  0
1562  0
1563  0
1564  0
1565  0
1566  0
1567  0
1568  0
1569  0
1570  0
1571  0
1572  0
1573  0
1574  0
1575  0
1576  0
1577  0
1578  0
1579  0
1580  0
1581  0
1582  0
1583  0
1584  0
1585  0
1586  0
1587  0
1588  0
1589  0
1590  0
1591  0
1592  0
1593  0
1594  0
1595  0
1596  0
1597  0
1598  0
1599  0
1600  0
1601  0
1602  0
1603  0
1604  0
1605  0
1606  0
1607  0
1608  0
1609  0
1610  0
1611  0
1612  0
1613  0
1614  0
1615  0
1616  0
1617  0
1618  0
1619  0
1620  0
1621  0
1622  0
1623  0
1624  0
1625  0
1626  0
1627  0
1628  0
1629  0
1630  0
1631  0
1632  0
1633  0
1634  0
1635  0
1636  0
1637  0
1638  0
1639  0
1640  0
1641  0
1642  0
1643  0
1644  0
1645  0
1646  0
1647  0
1648  0
1649  0
1650  0
1651  0
1652  0
1653  0
1654  0
1655  0
1656  0
1657  0
1658  0
1659  0
1660  0
1661  0
1662  0
1663  0
1664  0
1665  0
1666  2
1667  81
1668  365
1669  559
1670  529
1671  544
1672  513
1673  514
1674  488
1675  507
1676  448
1677  451
1678  433
1679  402
1680  357
1681  391
1682  360
1683  381
1684  336
1685  301
1686  294
1687  316
1688  273
1689  270
1690  239
1691  246
1692  254
1693  237
1694  229
1695  223
1696  185
1697  192
1698  206
1699  185
1700  193
1701  170
1702  169
1703  141
1704  128
1705  147
1706  145
1707  149
1708  131
1709  136
1710  137
1711  120
1712  114
1713  113
1714  105
1715  102
1716  112
1717  86
1718  97
1719  91
1720  90
1721  86
1722  82
1723  74
1724  82
1725  77
1726  71
1727  58
1728  60
1729  68
1730  67
1731  61
1732  49
1733  56
1734  65
1735  52
1736  48
1737  53
1738  55
1739  57
1740  45
1741  39
1742  39
1743  46
1744  34
1745  37
1746  40
1747  37
1748  37
1749  35
1750  40
1751  38
1752  39
1753  34
1754  30
1755  33
1756  38
1757  31
1758  35
1759  23
1760  21
1761  35
1762  35
1763  33
1764  25
1765  20
1766  24
1767  30
1768  25
1769  26
1770  19
1771  23
1772  39
1773  24
1774  21
1775  27
1776  29
1777  32
1778  23
1779  29
1780  19
1781  22
1782  18
1783  18
1784  14
1785  25
1786  15
1787  16
1788  21
1789  20
1790  20
1791  28
1792  28
1793  17
1794  19
1795  19
1796  20
1797  19
1798  22
1799  36
1800  20
1801  26
1802  25
1803  30
1804  31
1805  30
1806  23
1807  24
1808  26
1809  21
1810  23
1811  28
1812  35
1813  28
1814  24
1815  29
1816  31
1817  39
1818  32
1819  35
1820  30
1821  32
1822  39
1823  35
1824  31
1825  39
1826  40
1827  39
1828  42
1829  42
1830  52
1831  45
1832  42
1833  58
1834  44
1835  43
1836  44
1837  62
1838  48
1839  49
1840  60
1841  62
1842  64
1843  67
1844  61
1845  60
1846  76
1847  55
1848  66
1849  95
1850  60
1851  78
1852  69
1853  76
1854  67
1855  82
1856  78
1857  96
1858  94
1859  85
1860  90
1861  102
1862  90
1863  105
1864  100
1865  104
1866  110
1867  106
1868  107
1869  101
1870  116
1871  117
1872  120
1873  143
1874  124
1875  121
1876  117
1877  132
1878  158
1879  164
1880  143
1881  132
1882  160
1883  146
1884  144
1885  167
1886  149
1887  147
1888  167
1889  169
1890  156
1891  190
1892  163
1893  198
1894  199
1895  203
1896  191
1897  193
1898  209
1899  215
1900  203
1901  203
1902  217
1903  253
1904  243
1905  246
1906  239
1907  253
1908  245
1909  270
1910  246
1911  241
1912  275
1913  259
1914  266
1915  285
1916  290
1917  264
1918  280
1919  281
1920  274
1921  285
1922  328
1923  305
1924  275
1925  328
1926  317
1927  350
1928  329
1929  352
1930  320
1931  316
1932  336
1933  359
1934  406
1935  356
1936  324
1937  341
1938  375
1939  343
1940  364
1941  375
1942  376
1943  373
1944  406
1945  408
1946  386
1947  409
1948  413
1949  426
1950  432
1951  422
1952  418
1953  427
1954  429
1955  414
1956  406
1957  413
1958  470
1959  458
1960  409
1961  457
1962  467
1963  464
1964  461
1965  462
1966  477
1967  437
1968  427
1969  465
1970  474
1971  476
1972  485
1973  472
1974  513
1975  519
1976  540
1977  458
1978  505
1979  496
1980  476
1981  513
1982  432
1983  473
1984  500
1985  485
1986  495
1987  506
1988  489
1989  464
1990  491
1991  549
1992  517
1993  537
1994  477
1995  505
1996  519
1997  513
1998  549
1999  453
2000  512
2001  509
2002  469
2003  512
2004  499
2005  543
2006  512
2007  534
2008  499
2009  501
2010  513
2011  487
2012  555
2013  503
2014  522
2015  523
2016  490
2017  481
2018  514
2019  508
2020  475
2021  553
2022  497
2023  482
2024  505
2025  518
2026  486
2027  549
2028  485
2029  496
2030  546
2031  507
2032  537
2033  547
2034  512
2035  493
2036  511
2037  505
2038  496
2039  532
2040  509
2041  488
2042  506
2043  531
2044  461
2045  509
2046  494
2047  489
2048  524
2049  489
2050  491
2051  473
2052  490
2053  469
2054  480
2055  470
2056  500
2057  461
2058  477
2059  509
2060  426
2061  479
2062  481
2063  464
2064  514
2065  460
2066  461
2067  449
2068  452
2069  424
2070  453
2071  483
2072  439
2073  482
2074  445
2075  507
2076  466
2077  474
2078  453
2079  414
2080  438
2081  443
2082  416
2083  420
2084  423
2085  372
2086  452
2087  426
2088  425
2089  413
2090  437
2091  432
2092  422
2093  438
2094  380
2095  437
2096  422
2097  419
2098  382
2099  406
2100  393
2101  443
2102  399
2103  332
2104  360
2105  382
2106  369
2107  408
2108  372
2109  363
2110  406
2111  371
2112  373
2113  377
2114  330
2115  385
2116  380
2117  364
2118  346
2119  369
2120  375
2121  382
2122  335
2123  359
2124  313
2125  310
2126  371
2127  300
2128  342
2129  334
2130  328
2131  315
2132  356
2133  327
2134  340
2135  307
2136  306
2137  301
2138  284
2139  311
2140  309
2141  311
2142  289
2143  314
2144  313
2145  314
2146  326
2147  271
2148  277
2149  306
2150  282
2151  286
2152  343
2153  275
2154  274
2155  286
2156  300
2157  263
2158  284
2159  270
2160  288
2161  276
2162  295
2163  267
2164  253
2165  246
2166  263
2167  263
2168  288
2169  257
2170  283
2171  253
2172  239
2173  241
2174  250
2175  213
2176  235
2177  238
2178  231
2179  243
2180  248
2181  211
2182  209
2183  244
2184  239
2185  242
2186  219
2187  232
2188  230
2189  242
2190  221
2191  239
2192  216
2193  203
2194  196
2195  173
2196  193
2197  219
2198  204
2199  195
2200  191
2201  210
2202  203
2203  202
2204  223
2205  180
2206  190
2207  226
2208  196
2209  198
2210  192
2211  210
2212  168
2213  200
2214  196
2215  186
2216  189
2217  174
2218  190
2219  181
2220  179
2221  170
2222  190
2223  164
2224  179
2225  184
2226  173
2227  158
2228  154
2229  158
2230  170
2231  169
2232  164
2233  151
2234  172
2235  145
2236  161
2237  181
2238  139
2239  116
2240  154
2241  154
2242  167
2243  163
2244  135
2245  140
2246  140
2247  142
2248  146
2249  141
2250  134
2251  122
2252  141
2253  126
2254  146
2255  127
2256  134
2257  150
2258  146
2259  151
2260  130
2261  143
2262  126
2263  128
2264  117
2265  126
2266  110
2267  123
2268  102
2269  120
2270  131
2271  112
2272  126
2273  131
2274  135
2275  121
2276  124
2277  128
2278  118
2279  125
2280  123
2281  117
2282  111
2283  101
2284  101
2285  114
2286  116
2287  108
2288  115
2289  101
2290  102
2291  123
2292  90
2293  111
2294  111
2295  118
2296  100
2297  106
2298  102
2299  104
2300  95
2301  121
2302  112
2303  86
2304  127
2305  101
2306  79
2307  93
2308  89
2309  91
2310  103
2311  100
2312  94
2313  84
2314  84
2315  88
2316  90
2317  92
2318  76
2319  81
2320  106
2321  87
2322  76
2323  84
2324  73
2325  82
2326  76
2327  95
2328  79
2329  68
2330  78
2331  73
2332  72
2333  61
2334  72
2335  69
2336  83
2337  78
2338  59
2339  81
2340  86
2341  70
2342  79
2343  67
2344  85
2345  76
2346  87
2347  66
2348  69
2349  77
2350  68
2351  67
2352  74
2353  69
2354  64
2355  67
2356  76
2357  67
2358  68
2359  66
2360  69
2361  62
2362  52
2363  65
2364  38
2365  66
2366  69
2367  54
2368  51
2369  59
2370  68
2371  59
2372  61
2373  59
2374  52
2375  56
2376  59
2377  56
2378  59
2379  58
2380  49
2381  56
2382  59
2383  54
2384  60
2385  57
2386  46
2387  51
2388  50
2389  53
2390  51
2391  42
2392  45
2393  45
2394  58
2395  33
2396  55
2397  49
2398  51
2399  36
2400  47
2401  51
2402  46
2403  51
2404  60
2405  40
2406  49
2407  47
2408  37
2409  44
2410  47
2411  41
2412  43
2413  35
2414  41
2415  47
2416  40
2417  45
2418  43
2419  30
2420  36
2421  42
2422  40
2423  39
2424  48
2425  48
2426  41
2427  49
2428  33
2429  59
2430  33
2431  48
2432  37
2433  35
2434  48
2435  47
2436  47
2437  33
2438  42
2439  32
2440  33
2441  43
2442  35
2443  26
2444  36
2445  34
2446  24
2447  34
2448  52
2449  32
2450  35
2451  33
2452  42
2453  48
2454  32
2455  36
2456  28
2457  23
2458  24
2459  34
2460  34
2461  30
2462  36
2463  39
2464  25
2465  41
2466  37
2467  36
2468  31
2469  30
2470  31
2471  25
2472  32
2473  37
2474  18
2475  31
2476  23
2477  32
2478  32
2479  28
2480  27
2481  31
2482  23
2483  24
2484  22
2485  27
2486  28
2487  39
2488  34
2489  24
2490  32
2491  26
2492  37
2493  16
2494  29
2495  32
2496  29
2497  24
2498  33
2499  25
2500  19
2501  31
2502  29
2503  26
2504  19
2505  25
2506  24
2507  34
2508  26
2509  21
2510  20
2511  16
2512  19
2513  23
2514  21
2515  33
2516  17
2517  21
2518  13
2519  18
2520  25
2521  26
2522  19
2523  15
2524  20
2525  19
2526  17
2527  21
2528  14
2529  21
2530  30
2531  14
2532  19
2533  15
2534  21
2535  23
2536  25
2537  19
2538  14
2539  19
2540  17
2541  20
2542  23
2543  14
2544  29
2545  16
2546  17
2547  27
2548  26
2549  16
2550  24
2551  27
2552  23
2553  17
2554  14
2555  25
2556  21
2557  15
2558  24
2559  19
2560  20
2561  19
2562  15
2563  12
2564  19
2565  20
2566  16
2567  14
2568  20
2569  27
2570  15
2571  17
2572  18
2573  17
2574  12
2575  25
2576  11
2577  15
2578  15
2579  21
2580  12
2581  14
2582  15
2583  16
2584  14
2585  21
2586  19
2587  16
2588  19
2589  15
2590  12
2591  15
2592  15
2593  10
2594  11
2595  13
2596  16
2597  13
2598  13
2599  7
2600  12
2601  17
2602  21
2603  17
2604  13
2605  17
2606  15
2607  19
2608  14
2609  22
2610  13
2611  16
2612  15
2613  14
2614  13
2615  9
2616  10
2617  8
2618  13
2619  5
2620  13
2621  6
2622  12
2623  15
2624  6
2625  12
2626  13
2627  11
2628  10
2629  14
2630  14
2631  9
2632  8
2633  12
2634  11
2635  10
2636  20
2637  13
2638  9
2639  14
2640  18
2641  7
2642  10
2643  12
2644  13
2645  10
2646  10
2647  9
2648  11
2649  7
2650  7
2651  9
2652  6
2653  9
2654  8
2655  13
2656  14
2657  10
2658  11
2659  5
2660  9
2661  10
2662  8
2663  7
2664  6
2665  10
2666  10
2667  8
2668  12
2669  2
2670  8
2671  9
2672  8
2673  5
2674  14
2675  6
2676  12
2677  6
2678  5
2679  10
2680  9
2681  9
2682  9
2683  10
2684  7
2685  10
2686  9
2687  13
2688  7
2689  12
2690  7
2691  6
2692  4
2693  3
2694  8
2695  11
2696  7
2697  5
2698  12
2699  11
2700  11
2701  2
2702  10
2703  8
2704  10
2705  8
2706  6
2707  5
2708  5
2709  11
2710  12
2711  2
2712  14
2713  5
2714  9
2715  12
2716  4
2717  9
2718  9
2719  5
2720  10
2721  5
2722  5
2723  11
2724  8
2725  3
2726  4
2727  6
2728  6
2729  7
2730  6
2731  8
2732  4
2733  11
2734  7
2735  10
2736  8
2737  6
2738  4
2739  7
2740  4
2741  7
2742  6
2743  9
2744  3
2745  8
2746  6
2747  5
2748  8
2749  4
2750  11
2751  9
2752  7
2753  6
2754  8
2755  7
2756  5
2757  7
2758  8
2759  5
2760  6
2761  3
2762  5
2763  6
2764  6
2765  5
2766  7
2767  5
2768  6
2769  4
2770  8
2771  10
2772  14
2773  8
2774  5
2775  7
2776  7
2777  7
2778  7
2779  7
2780  5
2781  4
2782  6
2783  6
2784  10
2785  8
2786  12
2787  5
2788  3
2789  5
2790  9
2791  8
2792  7
2793  6
2794  3
2795  6
2796  1
2797  4
2798  7
2799  2
2800  7
2801  8
2802  7
2803  7
2804  5
2805  3
2806  2
2807  2
2808  4
2809  5
2810  8
2811  6
2812  4
2813  6
2814  6
2815  6
2816  4
2817  6
2818  5
2819  4
2820  7
2821  4
2822  2
2823  4
2824  3
2825  6
2826  4
2827  6
2828  3
2829  5
2830  6
2831  5
2832  4
2833  8
2834  7
2835  5
2836  7
2837  7
2838  4
2839  5
2840  7
2841  4
2842  4
2843  4
2844  4
2845  3
2846  4
2847  2
2848  6
2849  4
2850  3
2851  6
2852  5
2853  3
2854  3
2855  7
2856  6
2857  7
2858  3
2859  5
2860  5
2861  6
2862  5
2863  3
2864  4
2865  4
2866  5
2867  4
2868  7
2869  4
2870  5
2871  4
2872  2
2873  6
2874  5
2875  7
2876  4
2877  6
2878  6
2879  4
2880  4
2881  6
2882  6
2883  4
2884  3
2885  0
2886  5
2887  6
2888  6
2889  4
2890  3
2891  4
2892  6
2893  6
2894  7
2895  2
2896  3
2897  4
2898  3
2899  7
2900  4
2901  2
2902  1
2903  2
2904  3
2905  5
2906  4
2907  1
2908  5
2909  2
2910  3
2911  6
2912  5
2913  5
2914  3
2915  3
2916  6
2917  1
2918  1
2919  6
2920  3
2921  7
2922  6
2923  5
2924  6
2925  5
2926  3
2927  2
2928  5
2929  2
2930  5
2931  5
2932  1
2933  6
2934  3
2935  4
2936  8
2937  4
2938  2
2939  3
2940  2
2941  0
2942  3
2943  4
2944  4
2945  5
2946  2
2947  4
2948  4
2949  2
2950  3
2951  1
2952  3
2953  3
2954  2
2955  3
2956  3
2957  2
2958  0
2959  5
2960  5
2961  5
2962  4
2963  1
2964  5
2965  4
2966  1
2967  6
2968  5
2969  3
2970  3
2971  2
2972  4
2973  7
2974  7
2975  1
2976  5
2977  4
2978  4
2979  3
2980  2
2981  6
2982  2
2983  3
2984  4
2985  5
2986  1
2987  5
2988  3
2989  3
2990  1
2991  2
2992  2
2993  0
2994  1
2995  2
2996  2
2997  4
2998  1
2999  0
3000  1
3001  0
3002  6
3003  3
3004  2
3005  5
3006  4
3007  3
3008  0
3009  1
3010  2
3011  2
3012  3
3013  2
3014  0
3015  3
3016  2
3017  0
3018  1
3019  1
3020  4
3021  0
3022  4
3023  0
3024  0
3025  3
3026  4
3027  1
3028  3
3029  2
3030  4
3031  4
3032  2
3033  6
3034  2
3035  5
3036  6
3037  0
3038  1
3039  2
3040  0
3041  2
3042  1
3043  3
3044  3
3045  2
3046  2
3047  4
3048  5
3049  6
3050  2
3051  0
3052  2
3053  3
3054  4
3055  4
3056  1
3057  3
3058  1
3059  3
3060  1
3061  2
3062  3
3063  3
3064  0
3065  6
3066  0
3067  2
3068  2
3069  3
3070  4
3071  2
3072  1
3073  1
3074  4
3075  3
3076  0
3077  2
3078  2
3079  2
3080  0
3081  2
3082  1
3083  1
3084  0
3085  4
3086  1
3087  3
3088  0
3089  3
3090  2
3091  1
3092  4
3093  2
3094  2
3095  1
3096  4
3097  0
3098  0
3099  2
3100  1
3101  1
3102  1
3103  0
3104  3
3105  1
3106  0
3107  0
3108  4
3109  3
3110  4
3111  2
3112  1
3113  2
3114  2
3115  3
3116  0
3117  0
3118  1
3119  4
3120  3
3121  1
3122  1
3123  0
3124  2
3125  3
3126  1
3127  2
3128  1
3129  2
3130  1
3131  0
3132  2
3133  0
3134  0
3135  3
3136  1
3137  3
3138  2
3139  1
3140  1
3141  1
3142  3
3143  1
3144  1
3145  3
3146  1
3147  1
3148  0
3149  0
3150  4
3151  0
3152  1
3153  2
3154  1
3155  5
3156  0
3157  0
3158  2
3159  0
3160  1
3161  4
3162  0
3163  3
3164  4
3165  1
3166  1
3167  1
3168  2
3169  0
3170  0
3171  1
3172  2
3173  2
3174  0
3175  1
3176  0
3177  0
3178  1
3179  0
3180  0
3181  1
3182  1
3183  1
3184  1
3185  1
3186  1
3187  4
3188  3
3189  0
3190  1
3191  1
3192  1
3193  0
3194  1
3195  0
3196  1
3197  2
3198  2
3199  0
3200  0
3201  1
3202  0
3203  3
3204  3
3205  0
3206  0
3207  2
3208  3
3209  1
3210  0
3211  1
3212  1
3213  0
3214  0
3215  1
3216  2
3217  3
3218  1
3219  2
3220  3
3221  2
3222  3
3223  0
3224  3
3225  1
3226  1
3227  1
3228  2
3229  0
3230  1
3231  2
3232  1
3233  0
3234  1
3235  1
3236  1
3237  1
3238  0
3239  1
3240  1
3241  0
3242  2
3243  0
3244  1
3245  1
3246  0
3247  1
3248  1
3249  1
3250  2
3251  2
3252  1
3253  1
3254  1
3255  3
3256  1
3257  0
3258  1
3259  0
3260  0
3261  0
3262  0
3263  4
3264  0
3265  0
3266  0
3267  0
3268  2
3269  1
3270  1
3271  1
3272  1
3273  0
3274  3
3275  0
3276  0
3277  1
3278  1
3279  2
3280  2
3281  1
3282  2
3283  0
3284  0
3285  2
3286  1
3287  1
3288  1
3289  0
3290  1
3291  0
3292  1
3293  0
3294  1
3295  2
3296  2
3297  1
3298  2
3299  0
3300  0
3301  0
3302  2
3303  1
3304  0
3305  0
3306  1
3307  3
3308  0
3309  0
3310  0
3311  1
3312  1
3313  1
3314  0
3315  3
3316  3
3317  0
3318  0
3319  0
3320  0
3321  1
3322  0
3323  0
3324  0
3325  2
3326  1
3327  1
3328  0
3329  0
3330  0
3331  1
3332  1
3333  2
3334  1
3335  0
3336  1
3337  3
3338  0
3339  0
3340  1
3341  0
3342  2
3343  1
3344  1
3345  1
3346  0
3347  0
3348  1
3349  0
3350  1
3351  0
3352  0
3353  1
3354  0
3355  1
3356  0
3357  1
3358  0
3359  0
3360  0
3361  1
3362  0
3363  0
3364  1
3365  1
3366  4
3367  0
3368  0
3369  0
3370  0
3371  1
3372  1
3373  0
3374  0
3375  0
3376  0
3377  2
3378  4
3379  2
3380  0
3381  0
3382  0
3383  1
3384  0
3385  0
3386  1
3387  0
3388  1
3389  1
3390  1
3391  0
3392  0
3393  1
3394  0
3395  0
3396  2
3397  2
3398  0
3399  0
3400  2
3401  1
3402  0
3403  1
3404  2
3405  1
3406  0
3407  0
3408  1
3409  1
3410  0
3411  0
3412  1
3413  0
3414  1
3415  0
3416  2
3417  0
3418  1
3419  1
3420  1
3421  2
3422  0
3423  0
3424  0
3425  0
3426  1
3427  1
3428  1
3429  2
3430  0
3431  0
3432  0
3433  1
3434  0
3435  1
3436  0
3437  1
3438  0
3439  0
3440  0
3441  0
3442  0
3443  1
3444  0
3445  1
3446  0
3447  0
3448  0
3449  0
3450  0
3451  0
3452  0
3453  0
3454  0
3455  0
3456  0
3457  1
3458  0
3459  0
3460  1
3461  0
3462  0
3463  1
3464  0
3465  0
3466  1
3467  0
3468  0
3469  1
3470  0
3471  0
3472  1
3473  1
3474  0
3475  2
3476  2
3477  0
3478  0
3479  1
3480  0
3481  1
3482  0
3483  1
3484  2
3485  0
3486  0
3487  0
3488  2
3489  1
3490  0
3491  1
3492  0
3493  0
3494  0
3495  0
3496  1
3497  0
3498  0
3499  0
3500  0
3501  0
3502  0
3503  0
3504  0
3505  1
3506  1
3507  0
3508  0
3509  2
3510  1
3511  1
3512  2
3513  1
3514  0
3515  1
3516  1
3517  0
3518  0
3519  0
3520  0
3521  1
3522  1
3523  2
3524  1
3525  0
3526  0
3527  1
3528  0
3529  0
3530  0
3531  0
3532  0
3533  1
3534  0
3535  1
3536  0
3537  0
3538  0
3539  1
3540  0
3541  1
3542  0
3543  0
3544  1
3545  0
3546  0
3547  0
3548  0
3549  0
3550  1
3551  1
3552  0
3553  0
3554  1
3555  1
3556  0
3557  0
3558  1
3559  1
3560  2
3561  0
3562  1
3563  0
3564  0
3565  0
3566  1
3567  0
3568  0
3569  0
3570  1
3571  2
3572  0
3573  0
3574  0
3575  0
3576  0
3577  0
3578  0
3579  1
3580  0
3581  0
3582  0
3583  0
3584  0
3585  1
3586  1
3587  1
3588  1
3589  0
3590  0
3591  0
3592  0
3593  1
3594  0
3595  0
3596  1
3597  1
3598  1
3599  0
3600  0
3601  0
3602  0
3603  0
3604  0
3605  0
3606  1
3607  1
3608  0
3609  0
3610  0
3611  0
3612  1
3613  1
3614  0
3615  1
3616  1
3617  0
3618  0
3619  0
3620  0
3621  0
3622  0
3623  0
3624  0
3625  0
3626  1
3627  0
3628  0
3629  0
3630  1
3631  0
3632  0
3633  0
3634  0
3635  1
3636  0
3637  0
3638  1
3639  1
3640  0
3641  0
3642  1
3643  0
3644  0
3645  1
3646  0
3647  0
3648  0
3649  0
3650  0
3651  1
3652  1
3653  0
3654  1
3655  0
3656  1
3657  0
3658  0
3659  0
3660  1
3661  1
3662  1
3663  0
3664  1
3665  0
3666  1
3667  0
3668  1
3669  0
3670  1
3671  0
3672  0
3673  0
3674  1
3675  1
3676  0
3677  0
3678  1
3679  0
3680  0
3681  0
3682  1
3683  0
3684  0
3685  0
3686  0
3687  0
3688  0
3689  0
3690  1
3691  0
3692  0
3693  0
3694  0
3695  0
3696  0
3697  0
3698  0
3699  0
3700  2
3701  0
3702  0
3703  0
3704  0
3705  0
3706  0
3707  1
3708  2
3709  0
3710  0
3711  0
3712  0
3713  0
3714  0
3715  0
3716  0
3717  0
3718  1
3719  0
3720  0
3721  0
3722  0
3723  0
3724  0
3725  0
3726  2
3727  0
3728  0
3729  0
3730  0
3731  0
3732  0
3733  0
3734  0
3735  0
3736  0
3737  0
3738  0
3739  0
3740  0
3741  0
3742  0
3743  0
3744  1
3745  0
3746  1
3747  1
3748  0
3749  0
3750  1
3751  1
3752  0
3753  0
3754  0
3755  0
3756  0
3757  0
3758  1
3759  0
3760  0
3761  0
3762  1
3763  0
3764  0
3765  0
3766  0
3767  0
3768  0
3769  0
3770  1
3771  0
3772  0
3773  1
3774  0
3775  1
3776  0
3777  0
3778  0
3779  0
3780  0
3781  0
3782  0
3783  0
3784  0
3785  0
3786  0
3787  1
3788  0
3789  0
3790  0
3791  0
3792  1
3793  0
3794  0
3795  0
3796  0
3797  0
3798  0
3799  1
3800  0
3801  0
3802  0
3803  0
3804  0
3805  0
3806  0
3807  0
3808  0
3809  0
3810  2
3811  0
3812  0
3813  1
3814  0
3815  1
3816  0
3817  0
3818  1
3819  0
3820  0
3821  0
3822  0
3823  0
3824  0
3825  1
3826  0
3827  3
3828  0
3829  1
3830  0
3831  0
3832  1
3833  0
3834  0
3835  0
3836  0
3837  0
3838  0
3839  0
3840  0
3841  0
3842  0
3843  0
3844  0
3845  0
3846  0
3847  0
3848  0
3849  0
3850  0
3851  0
3852  0
3853  0
3854  0
3855  0
3856  0
3857  0
3858  0
3859  0
3860  0
3861  0
3862  0
3863  0
3864  0
3865  0
3866  0
3867  0
3868  0
3869  0
3870  0
3871  0
3872  0
3873  0
3874  0
3875  0
3876  0
3877  0
3878  0
3879  0
3880  0
3881  0
3882  0
3883  0
3884  0
3885  0
3886  0
3887  0
3888  0
3889  0
3890  0
3891  0
3892  0
3893  0
3894  0
3895  0
3896  0
3897  0
3898  0
3899  0
3900  0
3901  0
3902  0
3903  0
3904  0
3905  0
3906  0
3907  0
3908  0
3909  0
3910  0
3911  0
3912  0
3913  0
3914  0
3915  0
3916  0
3917  0
3918  0
3919  0
3920  0
3921  0
3922  0
3923  0
3924  0
3925  0
3926  0
3927  0
3928  0
3929  0
3930  0
3931  0
3932  0
3933  0
3934  0
3935  0
3936  0
3937  0
3938  0
3939  0
3940  0
3941  0
3942  0
3943  0
3944  0
3945  0
3946  0
3947  0
3948  0
3949  0
3950  0
3951  0
3952  0
3953  0
3954  0
3955  0
3956  0
3957  0
3958  0
3959  0
3960  0
3961  0
3962  0
3963  0
3964  0
3965  0
3966  0
3967  0
3968  0
3969  0
3970  0
3971  0
3972  0
3973  0
3974  0
3975  0
3976  0
3977  0
3978  0
3979  0
3980  0
3981  0
3982  0
3983  0
3984  0
3985  0
3986  0
3987  0
3988  0
3989  0
3990  0
3991  0
3992  0
3993  0
3994  0
3995  0
3996  0
3997  0
3998  0
3999  0
4000  0
4001  0
4002  0
4003  0
4004  0
4005  0
4006  0
4007  0
4008  0
4009  0
4010  0
4011  0
4012  0
4013  0
4014  0
4015  0
4016  0
4017  0
4018  0
4019  0
4020  0
4021  0
4022  0
4023  0
4024  0
4025  0
4026  0
4027  0
4028  0
4029  0
4030  0
4031  0
4032  0
4033  0
4034  0
4035  0
4036  0
4037  0
4038  0
4039  0
4040  0
4041  0
4042  0
4043  0
4044  0
4045  0
4046  0
4047  0
4048  0
4049  0
4050  0
4051  0
4052  0
4053  0
4054  0
4055  0
4056  0
4057  0
4058  0
4059  0
4060  0
4061  0
4062  0
4063  0
4064  0
4065  0
4066  0
4067  0
4068  0
4069  0
4070  0
4071  0
4072  0
4073  0
4074  0
4075  0
4076  0
4077  0
4078  0
4079  0
4080  0
4081  0
4082  0
4083  0
4084  0
4085  0
4086  0
4087  0
4088  0
4089  0
4090  0
4091  0
4092  0
4093  0
4094  0
4095  0
