0  0
1  0
2  0
3  0
4  0
5  0
6  0
7  0
8  0
9  0
10  0
11  0
12  0
13  0
14  0
15  0
16  0
17  0
18  0
19  0
20  0
21  0
22  0
23  0
24  0
25  0
26  0
27  0
28  0
29  0
30  0
31  0
32  0
33  0
34  0
35  0
36  0
37  0
38  0
39  0
40  0
41  0
42  0
43  0
44  0
45  0
46  0
47  0
48  0
49  0
50  0
51  0
52  0
53  0
54  0
55  0
56  0
57  0
58  0
59  0
60  0
61  0
62  0
63  0
64  0
65  0
66  0
67  0
68  0
69  0
70  0
71  0
72  0
73  0
74  0
75  0
76  0
77  0
78  0
79  0
80  0
81  0
82  0
83  0
84  0
85  0
86  0
87  0
88  0
89  0
90  0
91  0
92  0
93  0
94  0
95  0
96  0
97  0
98  0
99  0
100  0
101  0
102  0
103  0
104  0
105  0
106  0
107  0
108  0
109  0
110  0
111  0
112  0
113  0
114  0
115  0
116  0
117  0
118  0
119  0
120  0
121  0
122  0
123  0
124  0
125  0
126  0
127  0
128  0
129  0
130  0
131  0
132  0
133  0
134  0
135  0
136  0
137  0
138  0
139  0
140  0
141  0
142  0
143  0
144  0
145  0
146  0
147  0
148  0
149  0
150  0
151  0
152  0
153  0
154  0
155  0
156  0
157  0
158  0
159  0
160  0
161  0
162  0
163  0
164  0
165  0
166  0
167  0
168  0
169  0
170  0
171  0
172  0
173  0
174  0
175  0
176  0
177  0
178  0
179  0
180  0
181  0
182  0
183  0
184  0
185  0
186  0
187  0
188  0
189  0
190  0
191  0
192  0
193  0
194  0
195  0
196  0
197  0
198  0
199  0
200  0
201  0
202  0
203  0
204  0
205  0
206  0
207  0
208  0
209  0
210  0
211  0
212  0
213  0
214  0
215  0
216  0
217  0
218  0
219  0
220  0
221  0
222  0
223  0
224  0
225  0
226  0
227  0
228  0
229  0
230  0
231  0
232  0
233  0
234  0
235  0
236  0
237  0
238  0
239  0
240  0
241  0
242  0
243  0
244  0
245  0
246  0
247  0
248  0
249  0
250  0
251  0
252  0
253  0
254  0
255  0
256  0
257  0
258  0
259  0
260  0
261  0
262  0
263  0
264  0
265  0
266  0
267  0
268  0
269  0
270  0
271  0
272  0
273  0
274  0
275  0
276  0
277  0
278  0
279  0
280  0
281  0
282  0
283  0
284  0
285  0
286  0
287  0
288  0
289  0
290  0
291  0
292  0
293  0
294  0
295  0
296  0
297  0
298  0
299  0
300  0
301  0
302  0
303  0
304  0
305  0
306  0
307  0
308  0
309  0
310  0
311  0
312  0
313  0
314  0
315  0
316  0
317  0
318  0
319  0
320  0
321  0
322  0
323  0
324  0
325  0
326  0
327  0
328  0
329  0
330  0
331  0
332  0
333  0
334  0
335  0
336  0
337  0
338  0
339  0
340  0
341  0
342  0
343  0
344  0
345  0
346  0
347  0
348  0
349  0
350  0
351  0
352  0
353  0
354  0
355  0
356  0
357  0
358  0
359  0
360  0
361  0
362  0
363  0
364  0
365  0
366  0
367  0
368  0
369  0
370  0
371  0
372  0
373  0
374  0
375  0
376  0
377  0
378  0
379  0
380  0
381  0
382  0
383  0
384  0
385  0
386  0
387  0
388  0
389  0
390  0
391  0
392  0
393  0
394  0
395  0
396  0
397  0
398  0
399  0
400  0
401  0
402  0
403  0
404  0
405  0
406  0
407  0
408  0
409  0
410  0
411  0
412  0
413  0
414  0
415  0
416  0
417  0
418  0
419  0
420  0
421  0
422  0
423  0
424  0
425  0
426  0
427  0
428  0
429  0
430  0
431  0
432  0
433  0
434  0
435  0
436  0
437  0
438  0
439  0
440  0
441  0
442  0
443  0
444  0
445  0
446  0
447  0
448  0
449  0
450  0
451  0
452  0
453  0
454  0
455  0
456  0
457  0
458  0
459  0
460  0
461  0
462  0
463  0
464  0
465  0
466  0
467  0
468  0
469  0
470  0
471  0
472  0
473  0
474  0
475  0
476  0
477  0
478  0
479  0
480  0
481  0
482  0
483  0
484  0
485  0
486  0
487  0
488  0
489  0
490  0
491  0
492  0
493  0
494  0
495  0
496  0
497  0
498  0
499  0
500  0
501  0
502  0
503  0
504  0
505  0
506  0
507  0
508  0
509  0
510  0
511  0
512  0
513  0
514  0
515  0
516  0
517  0
518  0
519  0
520  0
521  0
522  0
523  0
524  0
525  0
526  0
527  0
528  0
529  0
530  0
531  0
532  0
533  0
534  0
535  0
536  0
537  0
538  0
539  0
540  0
541  0
542  0
543  0
544  0
545  0
546  0
547  0
548  0
549  0
550  0
551  0
552  0
553  0
554  0
555  0
556  0
557  0
558  0
559  0
560  0
561  0
562  0
563  0
564  0
565  0
566  0
567  0
568  0
569  0
570  0
571  0
572  0
573  0
574  0
575  0
576  0
577  0
578  0
579  0
580  0
581  0
582  0
583  0
584  0
585  0
586  0
587  0
588  0
589  0
590  0
591  0
592  0
593  0
594  0
595  0
596  0
597  0
598  0
599  0
600  0
601  0
602  0
603  0
604  0
605  0
606  0
607  0
608  0
609  0
610  0
611  0
612  0
613  0
614  0
615  0
616  0
617  0
618  0
619  0
620  0
621  0
622  0
623  0
624  0
625  0
626  0
627  0
628  0
629  0
630  0
631  0
632  0
633  0
634  0
635  0
636  0
637  0
638  0
639  0
640  0
641  0
642  0
643  0
644  0
645  0
646  0
647  0
648  0
649  0
650  0
651  0
652  0
653  0
654  0
655  0
656  0
657  0
658  0
659  0
660  0
661  0
662  0
663  0
664  0
665  0
666  0
667  0
668  0
669  0
670  0
671  0
672  0
673  0
674  0
675  0
676  0
677  0
678  0
679  0
680  0
681  0
682  0
683  0
684  0
685  0
686  0
687  0
688  0
689  0
690  0
691  0
692  0
693  0
694  0
695  0
696  0
697  0
698  0
699  0
700  0
701  0
702  0
703  0
704  0
705  0
706  0
707  0
708  0
709  0
710  0
711  0
712  0
713  0
714  0
715  0
716  0
717  0
718  0
719  0
720  0
721  0
722  0
723  0
724  0
725  0
726  0
727  0
728  0
729  0
730  0
731  0
732  0
733  0
734  0
735  0
736  0
737  0
738  0
739  0
740  0
741  0
742  0
743  0
744  0
745  0
746  0
747  0
748  0
749  0
750  0
751  0
752  0
753  0
754  0
755  0
756  0
757  0
758  0
759  0
760  0
761  0
762  0
763  0
764  0
765  0
766  0
767  0
768  0
769  0
770  0
771  0
772  0
773  0
774  0
775  0
776  0
777  0
778  0
779  0
780  0
781  0
782  0
783  0
784  0
785  0
786  0
787  0
788  0
789  0
790  0
791  0
792  0
793  0
794  0
795  0
796  0
797  0
798  0
799  0
800  0
801  0
802  0
803  0
804  0
805  0
806  0
807  0
808  0
809  0
810  0
811  0
812  0
813  0
814  0
815  0
816  0
817  0
818  0
819  0
820  0
821  0
822  0
823  0
824  0
825  0
826  0
827  0
828  0
829  0
830  0
831  0
832  0
833  0
834  0
835  0
836  0
837  0
838  0
839  0
840  0
841  0
842  0
843  0
844  0
845  0
846  0
847  0
848  0
849  0
850  0
851  0
852  0
853  0
854  0
855  0
856  0
857  0
858  0
859  0
860  0
861  0
862  0
863  0
864  0
865  0
866  0
867  0
868  0
869  0
870  0
871  0
872  0
873  0
874  0
875  0
876  0
877  0
878  0
879  0
880  0
881  0
882  0
883  0
884  0
885  0
886  0
887  0
888  0
889  0
890  0
891  0
892  0
893  0
894  0
895  0
896  0
897  0
898  0
899  0
900  0
901  0
902  0
903  0
904  0
905  0
906  0
907  0
908  0
909  0
910  0
911  0
912  0
913  0
914  0
915  0
916  0
917  0
918  0
919  0
920  0
921  0
922  0
923  0
924  0
925  0
926  0
927  0
928  0
929  0
930  0
931  0
932  0
933  0
934  0
935  0
936  0
937  0
938  0
939  0
940  0
941  0
942  0
943  0
944  0
945  0
946  0
947  0
948  0
949  0
950  0
951  0
952  0
953  0
954  0
955  0
956  0
957  0
958  0
959  0
960  0
961  0
962  0
963  0
964  0
965  0
966  0
967  0
968  0
969  0
970  0
971  0
972  0
973  0
974  0
975  0
976  0
977  0
978  0
979  0
980  0
981  0
982  0
983  0
984  0
985  0
986  0
987  0
988  0
989  0
990  0
991  0
992  0
993  0
994  0
995  0
996  0
997  0
998  0
999  0
1000  0
1001  0
1002  0
1003  0
1004  0
1005  0
1006  0
1007  0
1008  0
1009  0
1010  0
1011  0
1012  0
1013  0
1014  0
1015  0
1016  0
1017  0
1018  0
1019  0
1020  0
1021  0
1022  0
1023  0
1024  0
1025  0
1026  0
1027  0
1028  0
1029  0
1030  0
1031  0
1032  0
1033  0
1034  0
1035  0
1036  0
1037  0
1038  0
1039  0
1040  0
1041  0
1042  0
1043  0
1044  0
1045  0
1046  0
1047  0
1048  0
1049  0
1050  0
1051  0
1052  0
1053  0
1054  0
1055  0
1056  0
1057  0
1058  0
1059  0
1060  0
1061  0
1062  0
1063  0
1064  0
1065  0
1066  0
1067  0
1068  0
1069  0
1070  0
1071  0
1072  0
1073  0
1074  0
1075  0
1076  0
1077  0
1078  0
1079  0
1080  0
1081  0
1082  0
1083  0
1084  0
1085  0
1086  0
1087  0
1088  0
1089  0
1090  0
1091  0
1092  0
1093  0
1094  0
1095  0
1096  0
1097  0
1098  0
1099  0
1100  0
1101  0
1102  0
1103  0
1104  0
1105  0
1106  0
1107  0
1108  0
1109  0
1110  0
1111  0
1112  0
1113  0
1114  0
1115  0
1116  0
1117  0
1118  0
1119  0
1120  0
1121  0
1122  0
1123  0
1124  0
1125  0
1126  0
1127  0
1128  0
1129  0
1130  0
1131  0
1132  0
1133  0
1134  0
1135  0
1136  0
1137  0
1138  0
1139  0
1140  0
1141  0
1142  0
1143  0
1144  0
1145  0
1146  0
1147  0
1148  0
1149  0
1150  0
1151  0
1152  0
1153  0
1154  0
1155  0
1156  0
1157  0
1158  0
1159  0
1160  0
1161  0
1162  0
1163  0
1164  0
1165  0
1166  0
1167  0
1168  0
1169  0
1170  0
1171  0
1172  0
1173  0
1174  0
1175  0
1176  0
1177  0
1178  0
1179  0
1180  0
1181  0
1182  0
1183  0
1184  0
1185  0
1186  0
1187  0
1188  0
1189  0
1190  0
1191  0
1192  0
1193  0
1194  0
1195  0
1196  0
1197  0
1198  0
1199  0
1200  0
1201  0
1202  0
1203  0
1204  0
1205  0
1206  0
1207  0
1208  0
1209  0
1210  0
1211  0
1212  0
1213  0
1214  0
1215  0
1216  0
1217  0
1218  0
1219  0
1220  0
1221  0
1222  0
1223  0
1224  0
1225  0
1226  0
1227  0
1228  0
1229  0
1230  0
1231  0
1232  0
1233  0
1234  0
1235  0
1236  0
1237  0
1238  0
1239  0
1240  0
1241  0
1242  0
1243  0
1244  0
1245  0
1246  0
1247  0
1248  0
1249  0
1250  0
1251  0
1252  0
1253  0
1254  0
1255  0
1256  0
1257  0
1258  0
1259  0
1260  0
1261  0
1262  0
1263  0
1264  0
1265  0
1266  0
1267  0
1268  0
1269  0
1270  0
1271  0
1272  0
1273  0
1274  0
1275  0
1276  0
1277  0
1278  0
1279  0
1280  0
1281  0
1282  0
1283  0
1284  0
1285  0
1286  0
1287  0
1288  0
1289  0
1290  0
1291  0
1292  0
1293  0
1294  0
1295  0
1296  0
1297  0
1298  0
1299  0
1300  0
1301  0
1302  0
1303  0
1304  0
1305  0
1306  0
1307  0
1308  0
1309  0
1310  0
1311  0
1312  0
1313  0
1314  0
1315  0
1316  0
1317  0
1318  0
1319  0
1320  0
1321  0
1322  0
1323  0
1324  0
1325  0
1326  0
1327  0
1328  0
1329  0
1330  0
1331  0
1332  0
1333  0
1334  0
1335  0
1336  0
1337  0
1338  0
1339  0
1340  0
1341  0
1342  0
1343  0
1344  0
1345  0
1346  0
1347  0
1348  0
1349  0
1350  0
1351  0
1352  0
1353  0
1354  0
1355  0
1356  0
1357  0
1358  0
1359  0
1360  0
1361  0
1362  0
1363  0
1364  0
1365  0
1366  0
1367  0
1368  0
1369  0
1370  0
1371  0
1372  0
1373  0
1374  0
1375  0
1376  0
1377  0
1378  0
1379  0
1380  0
1381  0
1382  0
1383  0
1384  0
1385  0
1386  0
1387  0
1388  0
1389  0
1390  0
1391  0
1392  0
1393  0
1394  0
1395  0
1396  0
1397  0
1398  0
1399  0
1400  0
1401  0
1402  0
1403  0
1404  0
1405  0
1406  0
1407  0
1408  0
1409  0
1410  0
1411  0
1412  0
1413  0
1414  0
1415  0
1416  0
1417  0
1418  0
1419  0
1420  0
1421  0
1422  0
1423  0
1424  0
1425  0
1426  0
1427  0
1428  0
1429  0
1430  0
1431  0
1432  0
1433  0
1434  0
1435  0
1436  0
1437  0
1438  0
1439  0
1440  0
1441  0
1442  0
1443  0
1444  0
1445  0
1446  0
1447  0
1448  0
1449  0
1450  0
1451  0
1452  0
1453  0
1454  0
1455  0
1456  0
1457  0
1458  0
1459  0
1460  0
1461  0
1462  0
1463  0
1464  0
1465  0
1466  0
1467  0
1468  0
1469  0
1470  0
1471  0
1472  0
1473  0
1474  0
1475  0
1476  0
1477  0
1478  0
1479  0
1480  0
1481  0
1482  0
1483  0
1484  0
1485  0
1486  0
1487  0
1488  0
1489  0
1490  0
1491  0
1492  0
1493  0
1494  0
1495  0
1496  0
1497  0
1498  0
1499  0
1500  0
1501  0
1502  0
1503  0
1504  0
1505  0
1506  0
1507  0
1508  0
1509  0
1510  0
1511  0
1512  0
1513  0
1514  0
1515  0
1516  0
1517  0
1518  0
1519  0
1520  0
1521  0
1522  0
1523  0
1524  0
1525  0
1526  0
1527  0
1528  0
1529  0
1530  0
1531  0
1532  0
1533  0
1534  0
1535  0
1536  0
1537  0
1538  0
1539  0
1540  0
1541  0
1542  0
1543  0
1544  0
1545  0
1546  0
1547  0
1548  0
1549  0
1550  0
1551  0
1552  0
1553  0
1554  0
1555  0
1556  0
1557  0
1558  0
1559  0
1560  0
1561  0
1562  0
1563  0
1564  0
1565  0
1566  0
1567  0
1568  0
1569  0
1570  0
1571  0
1572  0
1573  0
1574  0
1575  0
1576  0
1577  0
1578  0
1579  0
1580  0
1581  0
1582  0
1583  0
1584  0
1585  0
1586  0
1587  0
1588  0
1589  0
1590  0
1591  0
1592  0
1593  0
1594  0
1595  0
1596  0
1597  0
1598  0
1599  3
1600  1
1601  8
1602  25
1603  88
1604  177
1605  276
1606  373
1607  413
1608  442
1609  431
1610  432
1611  424
1612  415
1613  431
1614  429
1615  431
1616  460
1617  416
1618  435
1619  423
1620  409
1621  404
1622  381
1623  381
1624  380
1625  371
1626  362
1627  372
1628  353
1629  372
1630  353
1631  341
1632  305
1633  315
1634  284
1635  309
1636  299
1637  255
1638  252
1639  252
1640  244
1641  258
1642  225
1643  256
1644  232
1645  196
1646  210
1647  197
1648  193
1649  194
1650  199
1651  174
1652  178
1653  162
1654  161
1655  169
1656  135
1657  130
1658  120
1659  133
1660  110
1661  125
1662  119
1663  103
1664  99
1665  97
1666  106
1667  86
1668  71
1669  73
1670  71
1671  66
1672  77
1673  66
1674  82
1675  62
1676  56
1677  58
1678  63
1679  40
1680  43
1681  43
1682  52
1683  41
1684  45
1685  43
1686  46
1687  28
1688  29
1689  37
1690  30
1691  33
1692  36
1693  38
1694  26
1695  32
1696  36
1697  26
1698  25
1699  26
1700  24
1701  17
1702  15
1703  25
1704  22
1705  24
1706  13
1707  19
1708  9
1709  18
1710  19
1711  20
1712  31
1713  15
1714  18
1715  10
1716  19
1717  18
1718  12
1719  16
1720  17
1721  11
1722  16
1723  14
1724  14
1725  11
1726  12
1727  15
1728  14
1729  6
1730  12
1731  12
1732  15
1733  9
1734  10
1735  10
1736  15
1737  7
1738  9
1739  16
1740  7
1741  5
1742  19
1743  12
1744  6
1745  8
1746  11
1747  14
1748  7
1749  7
1750  16
1751  5
1752  6
1753  7
1754  12
1755  5
1756  11
1757  8
1758  7
1759  8
1760  7
1761  7
1762  13
1763  8
1764  13
1765  6
1766  5
1767  12
1768  7
1769  7
1770  8
1771  8
1772  6
1773  7
1774  8
1775  5
1776  15
1777  4
1778  7
1779  9
1780  6
1781  9
1782  8
1783  9
1784  10
1785  13
1786  11
1787  7
1788  8
1789  5
1790  6
1791  15
1792  9
1793  9
1794  6
1795  11
1796  5
1797  13
1798  8
1799  16
1800  3
1801  10
1802  12
1803  11
1804  10
1805  10
1806  13
1807  12
1808  7
1809  8
1810  4
1811  11
1812  10
1813  10
1814  12
1815  8
1816  8
1817  10
1818  8
1819  13
1820  14
1821  10
1822  10
1823  11
1824  14
1825  14
1826  14
1827  6
1828  15
1829  14
1830  9
1831  16
1832  5
1833  8
1834  8
1835  8
1836  13
1837  8
1838  24
1839  12
1840  15
1841  9
1842  16
1843  8
1844  17
1845  14
1846  20
1847  11
1848  19
1849  20
1850  20
1851  11
1852  14
1853  19
1854  24
1855  20
1856  9
1857  24
1858  13
1859  15
1860  17
1861  17
1862  11
1863  12
1864  21
1865  15
1866  22
1867  16
1868  23
1869  19
1870  24
1871  33
1872  25
1873  17
1874  29
1875  26
1876  27
1877  22
1878  24
1879  27
1880  22
1881  28
1882  25
1883  36
1884  27
1885  25
1886  24
1887  26
1888  16
1889  21
1890  29
1891  21
1892  31
1893  20
1894  23
1895  16
1896  25
1897  30
1898  32
1899  26
1900  27
1901  29
1902  26
1903  28
1904  28
1905  33
1906  23
1907  35
1908  25
1909  28
1910  27
1911  28
1912  27
1913  32
1914  30
1915  30
1916  32
1917  38
1918  31
1919  23
1920  30
1921  28
1922  38
1923  33
1924  32
1925  35
1926  30
1927  28
1928  32
1929  32
1930  28
1931  14
1932  41
1933  41
1934  30
1935  41
1936  22
1937  31
1938  43
1939  44
1940  40
1941  36
1942  39
1943  32
1944  34
1945  31
1946  33
1947  24
1948  43
1949  43
1950  35
1951  38
1952  38
1953  36
1954  36
1955  35
1956  33
1957  38
1958  26
1959  25
1960  32
1961  32
1962  35
1963  33
1964  32
1965  35
1966  34
1967  33
1968  39
1969  38
1970  36
1971  38
1972  33
1973  36
1974  50
1975  32
1976  43
1977  56
1978  33
1979  43
1980  33
1981  33
1982  36
1983  41
1984  42
1985  33
1986  38
1987  34
1988  28
1989  32
1990  29
1991  31
1992  32
1993  34
1994  43
1995  42
1996  32
1997  31
1998  41
1999  37
2000  28
2001  37
2002  46
2003  48
2004  29
2005  23
2006  31
2007  38
2008  38
2009  28
2010  33
2011  37
2012  28
2013  36
2014  31
2015  37
2016  22
2017  38
2018  42
2019  30
2020  37
2021  32
2022  45
2023  25
2024  28
2025  42
2026  34
2027  27
2028  28
2029  35
2030  22
2031  25
2032  28
2033  35
2034  26
2035  31
2036  26
2037  33
2038  23
2039  23
2040  26
2041  29
2042  29
2043  36
2044  32
2045  29
2046  35
2047  26
2048  24
2049  30
2050  30
2051  19
2052  31
2053  29
2054  25
2055  26
2056  33
2057  37
2058  30
2059  37
2060  24
2061  27
2062  26
2063  31
2064  23
2065  29
2066  30
2067  30
2068  32
2069  34
2070  25
2071  20
2072  32
2073  33
2074  25
2075  28
2076  33
2077  29
2078  34
2079  32
2080  25
2081  24
2082  18
2083  26
2084  24
2085  17
2086  23
2087  22
2088  19
2089  14
2090  25
2091  25
2092  26
2093  20
2094  20
2095  27
2096  17
2097  27
2098  24
2099  15
2100  21
2101  27
2102  19
2103  17
2104  19
2105  22
2106  19
2107  27
2108  20
2109  19
2110  26
2111  19
2112  22
2113  18
2114  22
2115  19
2116  22
2117  17
2118  21
2119  14
2120  20
2121  25
2122  24
2123  15
2124  16
2125  14
2126  27
2127  26
2128  27
2129  23
2130  17
2131  20
2132  21
2133  19
2134  23
2135  19
2136  21
2137  20
2138  17
2139  17
2140  14
2141  19
2142  15
2143  14
2144  10
2145  18
2146  16
2147  18
2148  20
2149  14
2150  17
2151  9
2152  12
2153  21
2154  16
2155  22
2156  19
2157  12
2158  7
2159  14
2160  24
2161  16
2162  19
2163  18
2164  14
2165  7
2166  23
2167  17
2168  23
2169  12
2170  12
2171  14
2172  15
2173  12
2174  14
2175  14
2176  12
2177  19
2178  11
2179  18
2180  7
2181  12
2182  19
2183  8
2184  17
2185  14
2186  15
2187  15
2188  3
2189  16
2190  16
2191  14
2192  8
2193  13
2194  10
2195  8
2196  12
2197  15
2198  12
2199  9
2200  10
2201  7
2202  9
2203  9
2204  9
2205  14
2206  11
2207  14
2208  11
2209  16
2210  7
2211  9
2212  15
2213  7
2214  9
2215  14
2216  8
2217  10
2218  8
2219  9
2220  12
2221  9
2222  11
2223  13
2224  13
2225  15
2226  13
2227  9
2228  13
2229  13
2230  7
2231  13
2232  13
2233  10
2234  11
2235  10
2236  8
2237  6
2238  10
2239  9
2240  6
2241  13
2242  12
2243  7
2244  6
2245  15
2246  6
2247  9
2248  16
2249  10
2250  4
2251  6
2252  9
2253  15
2254  11
2255  6
2256  11
2257  7
2258  10
2259  7
2260  6
2261  12
2262  9
2263  12
2264  4
2265  5
2266  15
2267  4
2268  12
2269  7
2270  8
2271  3
2272  6
2273  10
2274  5
2275  7
2276  10
2277  11
2278  10
2279  5
2280  9
2281  4
2282  11
2283  12
2284  6
2285  4
2286  7
2287  11
2288  12
2289  8
2290  9
2291  6
2292  6
2293  1
2294  11
2295  4
2296  7
2297  8
2298  4
2299  8
2300  5
2301  8
2302  12
2303  10
2304  4
2305  2
2306  3
2307  6
2308  7
2309  8
2310  11
2311  6
2312  10
2313  5
2314  5
2315  3
2316  8
2317  7
2318  5
2319  7
2320  5
2321  2
2322  3
2323  6
2324  3
2325  4
2326  9
2327  3
2328  5
2329  7
2330  6
2331  6
2332  3
2333  5
2334  3
2335  5
2336  7
2337  9
2338  5
2339  2
2340  4
2341  3
2342  2
2343  4
2344  3
2345  4
2346  6
2347  1
2348  7
2349  4
2350  9
2351  5
2352  3
2353  5
2354  7
2355  5
2356  4
2357  3
2358  3
2359  4
2360  2
2361  4
2362  3
2363  9
2364  6
2365  6
2366  5
2367  2
2368  0
2369  4
2370  3
2371  9
2372  2
2373  2
2374  4
2375  8
2376  4
2377  8
2378  5
2379  4
2380  8
2381  7
2382  2
2383  4
2384  5
2385  5
2386  5
2387  3
2388  2
2389  4
2390  2
2391  5
2392  0
2393  3
2394  2
2395  4
2396  4
2397  5
2398  1
2399  7
2400  6
2401  7
2402  3
2403  5
2404  4
2405  2
2406  3
2407  3
2408  5
2409  5
2410  4
2411  4
2412  3
2413  0
2414  2
2415  0
2416  2
2417  0
2418  1
2419  5
2420  5
2421  7
2422  5
2423  3
2424  2
2425  2
2426  2
2427  5
2428  3
2429  1
2430  6
2431  4
2432  3
2433  3
2434  3
2435  2
2436  5
2437  2
2438  3
2439  4
2440  1
2441  1
2442  1
2443  2
2444  6
2445  4
2446  1
2447  4
2448  2
2449  1
2450  2
2451  3
2452  2
2453  7
2454  1
2455  2
2456  2
2457  2
2458  5
2459  1
2460  4
2461  2
2462  3
2463  5
2464  6
2465  3
2466  3
2467  5
2468  2
2469  2
2470  4
2471  3
2472  5
2473  0
2474  3
2475  3
2476  4
2477  2
2478  4
2479  3
2480  0
2481  1
2482  3
2483  3
2484  2
2485  4
2486  5
2487  3
2488  2
2489  3
2490  2
2491  1
2492  2
2493  0
2494  3
2495  1
2496  2
2497  2
2498  5
2499  3
2500  0
2501  0
2502  0
2503  3
2504  3
2505  1
2506  3
2507  1
2508  2
2509  2
2510  3
2511  4
2512  1
2513  2
2514  0
2515  3
2516  0
2517  3
2518  4
2519  1
2520  3
2521  2
2522  0
2523  2
2524  3
2525  0
2526  1
2527  2
2528  2
2529  4
2530  0
2531  1
2532  1
2533  2
2534  2
2535  6
2536  2
2537  0
2538  1
2539  1
2540  2
2541  4
2542  1
2543  5
2544  2
2545  3
2546  1
2547  1
2548  3
2549  1
2550  2
2551  2
2552  0
2553  1
2554  4
2555  3
2556  2
2557  2
2558  0
2559  2
2560  0
2561  2
2562  3
2563  3
2564  3
2565  1
2566  2
2567  2
2568  1
2569  3
2570  2
2571  0
2572  0
2573  2
2574  0
2575  0
2576  0
2577  2
2578  0
2579  0
2580  3
2581  0
2582  3
2583  0
2584  1
2585  4
2586  0
2587  2
2588  0
2589  2
2590  0
2591  2
2592  2
2593  3
2594  1
2595  1
2596  0
2597  0
2598  2
2599  1
2600  0
2601  1
2602  2
2603  2
2604  0
2605  1
2606  0
2607  0
2608  2
2609  1
2610  3
2611  1
2612  0
2613  1
2614  2
2615  1
2616  1
2617  1
2618  0
2619  2
2620  0
2621  2
2622  2
2623  0
2624  5
2625  1
2626  0
2627  0
2628  0
2629  0
2630  0
2631  1
2632  0
2633  1
2634  2
2635  4
2636  1
2637  0
2638  2
2639  0
2640  1
2641  1
2642  1
2643  1
2644  0
2645  1
2646  0
2647  3
2648  1
2649  3
2650  0
2651  1
2652  1
2653  1
2654  2
2655  2
2656  0
2657  3
2658  2
2659  2
2660  0
2661  0
2662  2
2663  3
2664  0
2665  0
2666  2
2667  1
2668  0
2669  0
2670  1
2671  2
2672  2
2673  1
2674  1
2675  4
2676  1
2677  1
2678  1
2679  0
2680  1
2681  1
2682  0
2683  1
2684  1
2685  0
2686  1
2687  1
2688  1
2689  0
2690  1
2691  0
2692  1
2693  2
2694  0
2695  2
2696  1
2697  1
2698  2
2699  1
2700  1
2701  0
2702  2
2703  1
2704  0
2705  1
2706  0
2707  2
2708  1
2709  1
2710  2
2711  0
2712  1
2713  0
2714  1
2715  2
2716  0
2717  3
2718  0
2719  0
2720  1
2721  0
2722  2
2723  0
2724  1
2725  0
2726  2
2727  0
2728  1
2729  2
2730  0
2731  2
2732  0
2733  1
2734  2
2735  0
2736  0
2737  1
2738  1
2739  0
2740  1
2741  1
2742  1
2743  1
2744  0
2745  1
2746  2
2747  0
2748  1
2749  0
2750  0
2751  1
2752  1
2753  1
2754  2
2755  1
2756  1
2757  2
2758  0
2759  1
2760  1
2761  0
2762  1
2763  1
2764  0
2765  1
2766  1
2767  0
2768  0
2769  2
2770  1
2771  0
2772  1
2773  1
2774  0
2775  3
2776  0
2777  1
2778  1
2779  1
2780  0
2781  1
2782  1
2783  0
2784  0
2785  0
2786  0
2787  0
2788  0
2789  0
2790  0
2791  0
2792  1
2793  0
2794  0
2795  1
2796  2
2797  1
2798  0
2799  3
2800  0
2801  0
2802  0
2803  0
2804  0
2805  1
2806  0
2807  0
2808  0
2809  1
2810  0
2811  3
2812  1
2813  1
2814  0
2815  3
2816  0
2817  1
2818  0
2819  1
2820  0
2821  1
2822  0
2823  0
2824  1
2825  1
2826  0
2827  0
2828  0
2829  0
2830  1
2831  0
2832  0
2833  1
2834  1
2835  1
2836  0
2837  0
2838  1
2839  1
2840  0
2841  0
2842  0
2843  0
2844  0
2845  0
2846  0
2847  1
2848  0
2849  1
2850  0
2851  1
2852  0
2853  0
2854  0
2855  0
2856  0
2857  0
2858  0
2859  1
2860  0
2861  0
2862  0
2863  0
2864  0
2865  0
2866  0
2867  0
2868  1
2869  1
2870  1
2871  0
2872  0
2873  1
2874  1
2875  0
2876  0
2877  0
2878  0
2879  0
2880  0
2881  0
2882  0
2883  2
2884  1
2885  0
2886  0
2887  0
2888  1
2889  0
2890  0
2891  0
2892  1
2893  0
2894  0
2895  0
2896  0
2897  0
2898  1
2899  1
2900  1
2901  1
2902  0
2903  0
2904  1
2905  0
2906  0
2907  1
2908  1
2909  0
2910  0
2911  0
2912  0
2913  1
2914  0
2915  0
2916  0
2917  0
2918  0
2919  0
2920  0
2921  0
2922  0
2923  1
2924  0
2925  0
2926  0
2927  0
2928  1
2929  0
2930  0
2931  0
2932  0
2933  1
2934  0
2935  0
2936  0
2937  1
2938  1
2939  0
2940  1
2941  1
2942  1
2943  2
2944  0
2945  0
2946  0
2947  0
2948  0
2949  1
2950  1
2951  0
2952  0
2953  0
2954  0
2955  0
2956  0
2957  1
2958  0
2959  1
2960  0
2961  0
2962  0
2963  0
2964  0
2965  0
2966  0
2967  0
2968  0
2969  1
2970  0
2971  1
2972  1
2973  1
2974  0
2975  0
2976  0
2977  1
2978  0
2979  0
2980  0
2981  0
2982  1
2983  0
2984  1
2985  0
2986  0
2987  0
2988  0
2989  2
2990  0
2991  0
2992  0
2993  0
2994  0
2995  0
2996  1
2997  0
2998  0
2999  0
3000  0
3001  0
3002  0
3003  1
3004  2
3005  1
3006  0
3007  0
3008  0
3009  0
3010  0
3011  0
3012  0
3013  0
3014  0
3015  1
3016  0
3017  0
3018  0
3019  0
3020  0
3021  0
3022  1
3023  1
3024  0
3025  2
3026  1
3027  0
3028  0
3029  0
3030  1
3031  2
3032  0
3033  2
3034  1
3035  0
3036  1
3037  0
3038  0
3039  0
3040  0
3041  0
3042  1
3043  0
3044  0
3045  0
3046  0
3047  2
3048  1
3049  0
3050  0
3051  0
3052  0
3053  2
3054  2
3055  0
3056  0
3057  0
3058  0
3059  0
3060  0
3061  0
3062  1
3063  0
3064  0
3065  0
3066  0
3067  0
3068  0
3069  0
3070  0
3071  1
3072  1
3073  0
3074  0
3075  0
3076  0
3077  0
3078  0
3079  0
3080  0
3081  3
3082  0
3083  2
3084  0
3085  0
3086  1
3087  0
3088  0
3089  0
3090  0
3091  0
3092  1
3093  0
3094  0
3095  0
3096  0
3097  0
3098  1
3099  1
3100  0
3101  0
3102  0
3103  0
3104  0
3105  0
3106  0
3107  0
3108  0
3109  0
3110  0
3111  1
3112  0
3113  0
3114  0
3115  0
3116  0
3117  0
3118  0
3119  0
3120  0
3121  0
3122  0
3123  0
3124  0
3125  0
3126  0
3127  1
3128  0
3129  0
3130  0
3131  0
3132  0
3133  0
3134  0
3135  0
3136  0
3137  0
3138  0
3139  0
3140  0
3141  0
3142  0
3143  0
3144  0
3145  0
3146  0
3147  0
3148  0
3149  0
3150  0
3151  0
3152  0
3153  0
3154  0
3155  0
3156  0
3157  0
3158  0
3159  0
3160  1
3161  1
3162  1
3163  0
3164  0
3165  0
3166  0
3167  0
3168  0
3169  0
3170  0
3171  1
3172  1
3173  0
3174  0
3175  0
3176  1
3177  0
3178  0
3179  0
3180  0
3181  1
3182  0
3183  0
3184  0
3185  0
3186  1
3187  0
3188  0
3189  0
3190  0
3191  0
3192  0
3193  1
3194  0
3195  1
3196  0
3197  0
3198  0
3199  0
3200  2
3201  0
3202  0
3203  1
3204  0
3205  0
3206  0
3207  0
3208  0
3209  0
3210  0
3211  1
3212  1
3213  1
3214  0
3215  0
3216  0
3217  0
3218  0
3219  1
3220  0
3221  0
3222  0
3223  0
3224  0
3225  0
3226  1
3227  0
3228  0
3229  0
3230  1
3231  0
3232  0
3233  0
3234  1
3235  1
3236  0
3237  0
3238  0
3239  0
3240  1
3241  0
3242  0
3243  0
3244  1
3245  1
3246  0
3247  0
3248  0
3249  0
3250  1
3251  0
3252  0
3253  0
3254  0
3255  0
3256  0
3257  0
3258  1
3259  1
3260  0
3261  0
3262  1
3263  0
3264  1
3265  0
3266  1
3267  0
3268  0
3269  0
3270  0
3271  0
3272  0
3273  0
3274  0
3275  0
3276  0
3277  0
3278  0
3279  0
3280  0
3281  0
3282  0
3283  0
3284  0
3285  0
3286  0
3287  0
3288  0
3289  0
3290  0
3291  0
3292  0
3293  0
3294  0
3295  1
3296  0
3297  0
3298  0
3299  2
3300  0
3301  1
3302  0
3303  0
3304  0
3305  0
3306  1
3307  0
3308  1
3309  0
3310  0
3311  0
3312  0
3313  1
3314  0
3315  1
3316  0
3317  0
3318  0
3319  0
3320  0
3321  0
3322  0
3323  0
3324  0
3325  1
3326  0
3327  1
3328  0
3329  1
3330  0
3331  0
3332  0
3333  0
3334  0
3335  0
3336  0
3337  1
3338  0
3339  0
3340  0
3341  0
3342  0
3343  0
3344  0
3345  0
3346  0
3347  0
3348  0
3349  0
3350  1
3351  0
3352  1
3353  0
3354  0
3355  0
3356  0
3357  0
3358  0
3359  0
3360  0
3361  1
3362  0
3363  0
3364  0
3365  0
3366  0
3367  0
3368  0
3369  1
3370  0
3371  0
3372  1
3373  0
3374  1
3375  0
3376  0
3377  0
3378  0
3379  0
3380  0
3381  1
3382  1
3383  0
3384  0
3385  1
3386  0
3387  1
3388  1
3389  1
3390  0
3391  0
3392  0
3393  0
3394  0
3395  0
3396  1
3397  1
3398  0
3399  0
3400  0
3401  0
3402  0
3403  0
3404  0
3405  1
3406  0
3407  0
3408  0
3409  1
3410  0
3411  0
3412  0
3413  0
3414  0
3415  0
3416  0
3417  0
3418  0
3419  1
3420  0
3421  0
3422  1
3423  1
3424  1
3425  0
3426  0
3427  1
3428  0
3429  0
3430  0
3431  0
3432  2
3433  0
3434  2
3435  0
3436  0
3437  0
3438  0
3439  0
3440  0
3441  0
3442  0
3443  0
3444  1
3445  0
3446  1
3447  0
3448  0
3449  0
3450  0
3451  1
3452  0
3453  0
3454  0
3455  0
3456  0
3457  0
3458  1
3459  0
3460  0
3461  0
3462  0
3463  1
3464  0
3465  1
3466  0
3467  0
3468  0
3469  1
3470  0
3471  0
3472  0
3473  0
3474  0
3475  0
3476  0
3477  0
3478  0
3479  0
3480  0
3481  0
3482  0
3483  2
3484  0
3485  1
3486  0
3487  0
3488  0
3489  0
3490  0
3491  0
3492  0
3493  1
3494  0
3495  0
3496  0
3497  0
3498  0
3499  0
3500  0
3501  0
3502  0
3503  0
3504  0
3505  0
3506  0
3507  0
3508  0
3509  0
3510  0
3511  0
3512  0
3513  1
3514  0
3515  0
3516  0
3517  0
3518  0
3519  0
3520  0
3521  0
3522  0
3523  0
3524  1
3525  0
3526  0
3527  0
3528  1
3529  0
3530  0
3531  0
3532  0
3533  0
3534  0
3535  0
3536  0
3537  0
3538  1
3539  2
3540  0
3541  0
3542  1
3543  0
3544  0
3545  1
3546  0
3547  1
3548  0
3549  0
3550  0
3551  0
3552  0
3553  0
3554  1
3555  0
3556  0
3557  1
3558  0
3559  0
3560  0
3561  0
3562  0
3563  0
3564  0
3565  1
3566  0
3567  0
3568  0
3569  0
3570  0
3571  0
3572  0
3573  0
3574  0
3575  0
3576  0
3577  1
3578  1
3579  0
3580  0
3581  0
3582  1
3583  0
3584  0
3585  0
3586  0
3587  0
3588  0
3589  0
3590  0
3591  0
3592  0
3593  0
3594  0
3595  0
3596  0
3597  0
3598  0
3599  0
3600  0
3601  0
3602  0
3603  0
3604  0
3605  0
3606  0
3607  0
3608  0
3609  0
3610  0
3611  0
3612  0
3613  0
3614  0
3615  0
3616  0
3617  1
3618  0
3619  0
3620  0
3621  0
3622  0
3623  1
3624  0
3625  0
3626  0
3627  0
3628  0
3629  0
3630  0
3631  1
3632  0
3633  1
3634  0
3635  0
3636  1
3637  0
3638  0
3639  0
3640  0
3641  0
3642  0
3643  0
3644  0
3645  0
3646  0
3647  0
3648  1
3649  0
3650  0
3651  0
3652  0
3653  0
3654  0
3655  1
3656  0
3657  0
3658  0
3659  1
3660  0
3661  0
3662  0
3663  1
3664  0
3665  1
3666  0
3667  0
3668  0
3669  0
3670  0
3671  0
3672  1
3673  0
3674  0
3675  0
3676  0
3677  0
3678  0
3679  0
3680  0
3681  0
3682  0
3683  0
3684  0
3685  0
3686  0
3687  0
3688  1
3689  0
3690  0
3691  0
3692  0
3693  0
3694  0
3695  0
3696  0
3697  0
3698  0
3699  0
3700  0
3701  0
3702  0
3703  0
3704  1
3705  0
3706  0
3707  0
3708  0
3709  1
3710  0
3711  1
3712  0
3713  0
3714  1
3715  0
3716  0
3717  1
3718  0
3719  1
3720  0
3721  0
3722  0
3723  1
3724  0
3725  0
3726  0
3727  0
3728  0
3729  0
3730  0
3731  0
3732  0
3733  0
3734  0
3735  0
3736  0
3737  0
3738  0
3739  2
3740  0
3741  0
3742  0
3743  1
3744  0
3745  1
3746  2
3747  0
3748  1
3749  0
3750  1
3751  0
3752  0
3753  1
3754  0
3755  0
3756  0
3757  0
3758  0
3759  0
3760  0
3761  1
3762  0
3763  0
3764  0
3765  1
3766  0
3767  0
3768  0
3769  0
3770  0
3771  0
3772  0
3773  0
3774  0
3775  1
3776  1
3777  0
3778  0
3779  0
3780  1
3781  0
3782  0
3783  0
3784  0
3785  0
3786  0
3787  2
3788  0
3789  1
3790  0
3791  0
3792  0
3793  0
3794  0
3795  0
3796  0
3797  1
3798  0
3799  0
3800  0
3801  0
3802  0
3803  0
3804  0
3805  0
3806  0
3807  0
3808  0
3809  0
3810  0
3811  0
3812  0
3813  0
3814  0
3815  0
3816  1
3817  0
3818  0
3819  0
3820  0
3821  0
3822  0
3823  0
3824  0
3825  1
3826  0
3827  0
3828  0
3829  0
3830  0
3831  0
3832  0
3833  0
3834  0
3835  0
3836  0
3837  0
3838  0
3839  1
3840  0
3841  0
3842  0
3843  0
3844  0
3845  0
3846  0
3847  0
3848  0
3849  0
3850  0
3851  0
3852  0
3853  0
3854  0
3855  0
3856  0
3857  0
3858  0
3859  0
3860  0
3861  0
3862  0
3863  0
3864  0
3865  0
3866  0
3867  0
3868  0
3869  0
3870  0
3871  0
3872  0
3873  0
3874  0
3875  0
3876  0
3877  0
3878  0
3879  0
3880  0
3881  0
3882  0
3883  0
3884  0
3885  0
3886  0
3887  0
3888  0
3889  0
3890  0
3891  0
3892  0
3893  0
3894  0
3895  0
3896  0
3897  0
3898  0
3899  0
3900  0
3901  0
3902  0
3903  0
3904  0
3905  0
3906  0
3907  0
3908  0
3909  0
3910  0
3911  0
3912  0
3913  0
3914  0
3915  0
3916  0
3917  0
3918  0
3919  0
3920  0
3921  0
3922  0
3923  0
3924  0
3925  0
3926  0
3927  0
3928  0
3929  0
3930  0
3931  0
3932  0
3933  0
3934  0
3935  0
3936  0
3937  0
3938  0
3939  0
3940  0
3941  0
3942  0
3943  0
3944  0
3945  0
3946  0
3947  0
3948  0
3949  0
3950  0
3951  0
3952  0
3953  0
3954  0
3955  0
3956  0
3957  0
3958  0
3959  0
3960  0
3961  0
3962  0
3963  0
3964  0
3965  0
3966  0
3967  0
3968  0
3969  0
3970  0
3971  0
3972  0
3973  0
3974  0
3975  0
3976  0
3977  0
3978  0
3979  0
3980  0
3981  0
3982  0
3983  0
3984  0
3985  0
3986  0
3987  0
3988  0
3989  0
3990  0
3991  0
3992  0
3993  0
3994  0
3995  0
3996  0
3997  0
3998  0
3999  0
4000  0
4001  0
4002  0
4003  0
4004  0
4005  0
4006  0
4007  0
4008  0
4009  0
4010  0
4011  0
4012  0
4013  0
4014  0
4015  0
4016  0
4017  0
4018  0
4019  0
4020  0
4021  0
4022  0
4023  0
4024  0
4025  0
4026  0
4027  0
4028  0
4029  0
4030  0
4031  0
4032  0
4033  0
4034  0
4035  0
4036  0
4037  0
4038  0
4039  0
4040  0
4041  0
4042  0
4043  0
4044  0
4045  0
4046  0
4047  0
4048  0
4049  0
4050  0
4051  0
4052  0
4053  0
4054  0
4055  0
4056  0
4057  0
4058  0
4059  0
4060  0
4061  0
4062  0
4063  0
4064  0
4065  0
4066  0
4067  0
4068  0
4069  0
4070  0
4071  0
4072  0
4073  0
4074  0
4075  0
4076  0
4077  0
4078  0
4079  0
4080  0
4081  0
4082  0
4083  0
4084  0
4085  0
4086  0
4087  0
4088  0
4089  0
4090  0
4091  0
4092  0
4093  0
4094  0
4095  0
