0  264
1  295
2  368
3  493
4  562
5  635
6  728
7  723
8  874
9  959
10  931
11  990
12  1064
13  1098
14  1114
15  1095
16  1084
17  1036
18  1003
19  967
20  870
21  820
22  748
23  684
24  607
25  530
26  476
27  360
28  358
29  267
30  211
31  170
32  146
33  85
34  104
35  65
36  43
37  33
38  25
39  13
40  11
41  10
42  5
43  3
44  5
45  2
46  3
47  0
48  1
49  1
50  0
51  0
52  0
53  0
54  0
55  0
56  0
57  0
58  0
59  0
60  0
61  0
62  0
63  0
64  0
65  0
66  0
67  0
68  0
69  0
70  0
71  0
72  1
73  0
74  0
75  0
76  0
77  0
78  0
79  0
80  0
81  0
82  0
83  0
84  0
85  0
86  0
87  0
88  0
89  0
90  0
91  0
92  0
93  0
94  0
95  0
96  0
97  0
98  0
99  0
100  0
101  0
102  0
103  0
104  0
105  0
106  0
107  0
108  0
109  0
110  0
111  0
112  0
113  0
114  0
115  0
116  0
117  0
118  0
119  0
120  0
121  0
122  0
123  0
124  0
125  0
126  0
127  0
128  0
129  0
130  0
131  0
132  0
133  0
134  0
135  0
136  0
137  0
138  0
139  0
140  0
141  0
142  0
143  0
144  0
145  0
146  0
147  0
148  0
149  0
150  0
151  0
152  0
153  0
154  0
155  0
156  0
157  0
158  0
159  0
160  0
161  0
162  0
163  0
164  0
165  0
166  0
167  0
168  0
169  0
170  0
171  0
172  0
173  0
174  0
175  0
176  0
177  0
178  0
179  0
180  0
181  0
182  0
183  0
184  0
185  0
186  0
187  0
188  0
189  0
190  0
191  0
192  0
193  0
194  0
195  0
196  0
197  0
198  0
199  2
200  3
201  3
202  2
203  0
204  4
205  1
206  0
207  1
208  4
209  2
210  11
211  8
212  3
213  3
214  4
215  10
216  9
217  7
218  5
219  4
220  9
221  9
222  9
223  9
224  7
225  10
226  4
227  8
228  3
229  3
230  2
231  9
232  8
233  4
234  4
235  3
236  3
237  3
238  5
239  4
240  0
241  1
242  1
243  4
244  3
245  1
246  3
247  3
248  0
249  0
250  0
251  2
252  0
253  5
254  3
255  1
256  1
257  2
258  1
259  2
260  2
261  2
262  1
263  2
264  1
265  1
266  0
267  2
268  1
269  0
270  1
271  2
272  1
273  1
274  4
275  1
276  1
277  2
278  3
279  2
280  2
281  7
282  0
283  4
284  3
285  5
286  4
287  3
288  0
289  6
290  3
291  4
292  3
293  1
294  1
295  4
296  3
297  2
298  3
299  3
300  1
301  0
302  2
303  1
304  2
305  1
306  4
307  2
308  2
309  2
310  4
311  0
312  4
313  1
314  2
315  6
316  1
317  3
318  1
319  2
320  1
321  3
322  4
323  3
324  3
325  4
326  3
327  1
328  1
329  2
330  3
331  1
332  3
333  3
334  2
335  1
336  2
337  3
338  0
339  2
340  2
341  0
342  1
343  1
344  2
345  1
346  0
347  2
348  4
349  0
350  1
351  2
352  1
353  1
354  2
355  1
356  3
357  1
358  5
359  1
360  2
361  1
362  1
363  2
364  0
365  4
366  2
367  1
368  2
369  1
370  2
371  2
372  2
373  2
374  1
375  2
376  1
377  2
378  0
379  0
380  1
381  1
382  2
383  3
384  3
385  1
386  1
387  3
388  1
389  0
390  1
391  4
392  2
393  2
394  4
395  1
396  0
397  2
398  3
399  0
400  4
401  3
402  3
403  4
404  2
405  1
406  1
407  0
408  0
409  2
410  0
411  1
412  3
413  3
414  1
415  2
416  4
417  2
418  1
419  3
420  4
421  2
422  1
423  3
424  0
425  4
426  2
427  3
428  2
429  1
430  5
431  1
432  1
433  0
434  1
435  6
436  1
437  0
438  2
439  3
440  1
441  2
442  4
443  2
444  1
445  1
446  1
447  3
448  0
449  1
450  0
451  2
452  3
453  0
454  1
455  1
456  2
457  1
458  4
459  1
460  4
461  3
462  2
463  1
464  2
465  4
466  3
467  1
468  3
469  5
470  4
471  1
472  2
473  0
474  2
475  1
476  1
477  1
478  3
479  0
480  2
481  3
482  2
483  2
484  2
485  2
486  2
487  0
488  1
489  0
490  4
491  0
492  1
493  0
494  2
495  2
496  3
497  0
498  1
499  3
500  1
501  1
502  2
503  1
504  0
505  2
506  1
507  2
508  3
509  1
510  3
511  1
512  1
513  1
514  1
515  1
516  1
517  0
518  1
519  0
520  1
521  2
522  0
523  2
524  1
525  3
526  2
527  4
528  0
529  3
530  3
531  3
532  1
533  0
534  2
535  0
536  0
537  2
538  1
539  2
540  3
541  6
542  0
543  3
544  0
545  2
546  4
547  4
548  1
549  0
550  2
551  2
552  1
553  2
554  2
555  2
556  1
557  1
558  1
559  2
560  2
561  0
562  4
563  1
564  2
565  2
566  3
567  1
568  0
569  2
570  4
571  1
572  7
573  2
574  3
575  2
576  0
577  2
578  0
579  2
580  2
581  2
582  2
583  2
584  0
585  4
586  4
587  1
588  2
589  2
590  0
591  2
592  1
593  3
594  5
595  1
596  2
597  3
598  4
599  0
600  3
601  5
602  0
603  5
604  1
605  2
606  1
607  2
608  0
609  1
610  0
611  4
612  4
613  2
614  7
615  0
616  3
617  2
618  2
619  3
620  3
621  2
622  1
623  1
624  2
625  1
626  0
627  2
628  3
629  4
630  2
631  0
632  1
633  0
634  2
635  1
636  2
637  1
638  1
639  2
640  1
641  1
642  3
643  6
644  0
645  1
646  2
647  0
648  0
649  2
650  2
651  2
652  4
653  4
654  1
655  0
656  2
657  1
658  3
659  1
660  0
661  1
662  1
663  2
664  0
665  3
666  1
667  1
668  3
669  2
670  2
671  2
672  3
673  2
674  2
675  4
676  6
677  0
678  1
679  3
680  1
681  1
682  2
683  1
684  2
685  0
686  5
687  2
688  1
689  0
690  1
691  1
692  1
693  2
694  2
695  1
696  1
697  1
698  1
699  0
700  3
701  3
702  1
703  1
704  2
705  0
706  3
707  1
708  3
709  2
710  2
711  1
712  2
713  0
714  1
715  0
716  3
717  3
718  1
719  2
720  2
721  2
722  4
723  2
724  0
725  0
726  1
727  3
728  2
729  1
730  0
731  1
732  2
733  0
734  0
735  1
736  0
737  1
738  1
739  2
740  0
741  0
742  1
743  2
744  1
745  0
746  2
747  2
748  3
749  1
750  1
751  2
752  6
753  2
754  2
755  1
756  2
757  0
758  1
759  4
760  2
761  2
762  3
763  3
764  4
765  0
766  0
767  2
768  1
769  1
770  3
771  6
772  2
773  1
774  0
775  2
776  0
777  0
778  1
779  0
780  2
781  0
782  1
783  3
784  3
785  0
786  3
787  2
788  4
789  0
790  3
791  0
792  1
793  0
794  1
795  3
796  3
797  1
798  1
799  4
800  2
801  1
802  0
803  1
804  1
805  0
806  3
807  3
808  1
809  1
810  1
811  3
812  0
813  3
814  0
815  1
816  0
817  0
818  2
819  2
820  1
821  0
822  3
823  0
824  1
825  1
826  1
827  2
828  0
829  0
830  1
831  1
832  1
833  0
834  1
835  2
836  1
837  0
838  0
839  4
840  1
841  3
842  2
843  2
844  1
845  1
846  1
847  2
848  0
849  1
850  1
851  1
852  0
853  0
854  0
855  0
856  0
857  1
858  0
859  1
860  1
861  1
862  2
863  0
864  0
865  0
866  0
867  0
868  2
869  2
870  1
871  1
872  1
873  1
874  0
875  2
876  2
877  1
878  1
879  1
880  0
881  1
882  2
883  2
884  1
885  0
886  2
887  1
888  1
889  1
890  1
891  0
892  0
893  2
894  2
895  1
896  0
897  0
898  2
899  2
900  0
901  3
902  1
903  1
904  0
905  0
906  0
907  3
908  2
909  1
910  1
911  1
912  1
913  0
914  1
915  0
916  2
917  0
918  0
919  3
920  1
921  1
922  1
923  0
924  0
925  1
926  2
927  0
928  1
929  1
930  2
931  0
932  1
933  0
934  0
935  0
936  5
937  1
938  0
939  0
940  1
941  0
942  0
943  1
944  1
945  0
946  2
947  0
948  1
949  1
950  3
951  0
952  0
953  1
954  1
955  0
956  2
957  0
958  0
959  0
960  0
961  1
962  2
963  0
964  1
965  0
966  0
967  0
968  1
969  1
970  1
971  1
972  2
973  0
974  0
975  0
976  1
977  1
978  2
979  2
980  0
981  0
982  1
983  3
984  1
985  0
986  0
987  0
988  0
989  1
990  1
991  0
992  1
993  2
994  1
995  0
996  1
997  0
998  1
999  1
1000  1
1001  1
1002  0
1003  0
1004  1
1005  0
1006  0
1007  0
1008  0
1009  1
1010  0
1011  1
1012  0
1013  0
1014  0
1015  1
1016  0
1017  0
1018  0
1019  0
1020  0
1021  1
1022  0
1023  0
1024  0
1025  1
1026  1
1027  0
1028  1
1029  0
1030  0
1031  0
1032  0
1033  1
1034  1
1035  0
1036  1
1037  0
1038  0
1039  0
1040  0
1041  1
1042  0
1043  1
1044  0
1045  1
1046  0
1047  0
1048  1
1049  1
1050  0
1051  1
1052  1
1053  0
1054  1
1055  1
1056  0
1057  0
1058  1
1059  0
1060  1
1061  0
1062  1
1063  1
1064  1
1065  1
1066  1
1067  0
1068  0
1069  1
1070  0
1071  1
1072  1
1073  0
1074  0
1075  0
1076  0
1077  0
1078  0
1079  1
1080  0
1081  0
1082  0
1083  0
1084  1
1085  0
1086  1
1087  0
1088  0
1089  0
1090  0
1091  2
1092  2
1093  1
1094  0
1095  0
1096  1
1097  2
1098  1
1099  0
1100  1
1101  1
1102  0
1103  0
1104  0
1105  1
1106  1
1107  1
1108  1
1109  0
1110  0
1111  3
1112  1
1113  0
1114  0
1115  2
1116  2
1117  1
1118  0
1119  0
1120  2
1121  1
1122  0
1123  0
1124  0
1125  3
1126  0
1127  2
1128  0
1129  0
1130  1
1131  0
1132  1
1133  0
1134  0
1135  2
1136  0
1137  0
1138  0
1139  0
1140  0
1141  0
1142  0
1143  0
1144  0
1145  0
1146  3
1147  0
1148  1
1149  0
1150  1
1151  1
1152  1
1153  0
1154  0
1155  0
1156  0
1157  2
1158  0
1159  0
1160  0
1161  1
1162  0
1163  0
1164  1
1165  0
1166  0
1167  1
1168  0
1169  0
1170  0
1171  0
1172  0
1173  0
1174  0
1175  0
1176  0
1177  2
1178  1
1179  0
1180  2
1181  1
1182  1
1183  0
1184  0
1185  2
1186  0
1187  0
1188  0
1189  0
1190  1
1191  2
1192  1
1193  0
1194  0
1195  3
1196  1
1197  0
1198  0
1199  1
1200  0
1201  1
1202  1
1203  1
1204  1
1205  0
1206  0
1207  1
1208  1
1209  0
1210  0
1211  2
1212  1
1213  2
1214  2
1215  0
1216  0
1217  1
1218  0
1219  0
1220  1
1221  1
1222  1
1223  0
1224  1
1225  0
1226  1
1227  0
1228  1
1229  0
1230  2
1231  0
1232  0
1233  2
1234  0
1235  1
1236  1
1237  0
1238  0
1239  1
1240  0
1241  0
1242  0
1243  2
1244  4
1245  4
1246  0
1247  1
1248  0
1249  1
1250  1
1251  0
1252  0
1253  2
1254  1
1255  0
1256  2
1257  0
1258  0
1259  0
1260  0
1261  0
1262  1
1263  1
1264  0
1265  0
1266  2
1267  1
1268  1
1269  0
1270  0
1271  0
1272  1
1273  0
1274  0
1275  2
1276  0
1277  1
1278  1
1279  1
1280  1
1281  0
1282  1
1283  1
1284  0
1285  0
1286  1
1287  0
1288  0
1289  2
1290  0
1291  0
1292  0
1293  1
1294  1
1295  0
1296  0
1297  1
1298  0
1299  0
1300  0
1301  0
1302  0
1303  0
1304  2
1305  2
1306  0
1307  0
1308  1
1309  0
1310  0
1311  0
1312  1
1313  0
1314  0
1315  2
1316  1
1317  0
1318  0
1319  0
1320  2
1321  1
1322  1
1323  0
1324  0
1325  1
1326  0
1327  2
1328  0
1329  0
1330  0
1331  0
1332  0
1333  1
1334  0
1335  0
1336  4
1337  0
1338  0
1339  1
1340  1
1341  0
1342  0
1343  0
1344  0
1345  2
1346  1
1347  0
1348  1
1349  2
1350  1
1351  0
1352  1
1353  1
1354  0
1355  2
1356  1
1357  1
1358  1
1359  1
1360  1
1361  1
1362  1
1363  0
1364  0
1365  1
1366  1
1367  0
1368  1
1369  0
1370  1
1371  0
1372  1
1373  0
1374  1
1375  3
1376  1
1377  1
1378  1
1379  0
1380  0
1381  0
1382  0
1383  0
1384  1
1385  0
1386  1
1387  0
1388  0
1389  1
1390  0
1391  1
1392  1
1393  2
1394  2
1395  1
1396  1
1397  0
1398  0
1399  0
1400  1
1401  1
1402  1
1403  1
1404  0
1405  2
1406  0
1407  0
1408  1
1409  1
1410  0
1411  1
1412  2
1413  1
1414  0
1415  0
1416  2
1417  0
1418  1
1419  1
1420  0
1421  0
1422  0
1423  2
1424  0
1425  0
1426  2
1427  0
1428  0
1429  0
1430  1
1431  1
1432  0
1433  0
1434  0
1435  1
1436  0
1437  2
1438  3
1439  0
1440  0
1441  1
1442  1
1443  1
1444  2
1445  0
1446  0
1447  0
1448  1
1449  3
1450  2
1451  0
1452  1
1453  1
1454  1
1455  0
1456  0
1457  0
1458  2
1459  0
1460  1
1461  1
1462  0
1463  2
1464  0
1465  1
1466  1
1467  1
1468  0
1469  0
1470  0
1471  0
1472  1
1473  2
1474  1
1475  1
1476  1
1477  0
1478  0
1479  1
1480  0
1481  1
1482  0
1483  2
1484  1
1485  2
1486  0
1487  2
1488  2
1489  0
1490  0
1491  1
1492  0
1493  1
1494  1
1495  0
1496  1
1497  3
1498  0
1499  0
1500  2
1501  3
1502  0
1503  1
1504  1
1505  0
1506  2
1507  0
1508  1
1509  1
1510  2
1511  2
1512  0
1513  2
1514  2
1515  2
1516  1
1517  0
1518  1
1519  1
1520  2
1521  1
1522  2
1523  1
1524  1
1525  3
1526  1
1527  2
1528  2
1529  0
1530  0
1531  0
1532  0
1533  2
1534  3
1535  1
1536  1
1537  1
1538  0
1539  1
1540  0
1541  2
1542  0
1543  0
1544  0
1545  0
1546  2
1547  0
1548  3
1549  0
1550  0
1551  2
1552  0
1553  0
1554  1
1555  0
1556  1
1557  0
1558  1
1559  0
1560  0
1561  3
1562  0
1563  2
1564  3
1565  0
1566  0
1567  3
1568  5
1569  1
1570  7
1571  2
1572  5
1573  5
1574  9
1575  7
1576  1
1577  8
1578  5
1579  4
1580  14
1581  6
1582  11
1583  13
1584  16
1585  13
1586  20
1587  16
1588  18
1589  22
1590  22
1591  17
1592  28
1593  29
1594  27
1595  33
1596  35
1597  26
1598  27
1599  24
1600  19
1601  26
1602  27
1603  18
1604  22
1605  13
1606  15
1607  12
1608  17
1609  21
1610  14
1611  12
1612  10
1613  15
1614  6
1615  8
1616  9
1617  10
1618  3
1619  11
1620  4
1621  1
1622  10
1623  1
1624  6
1625  2
1626  4
1627  6
1628  3
1629  5
1630  2
1631  2
1632  4
1633  6
1634  6
1635  2
1636  1
1637  2
1638  3
1639  1
1640  1
1641  3
1642  1
1643  3
1644  2
1645  0
1646  2
1647  0
1648  1
1649  1
1650  2
1651  4
1652  4
1653  1
1654  1
1655  0
1656  5
1657  6
1658  3
1659  4
1660  6
1661  6
1662  4
1663  4
1664  5
1665  13
1666  20
1667  14
1668  9
1669  20
1670  23
1671  29
1672  17
1673  23
1674  35
1675  24
1676  32
1677  35
1678  40
1679  26
1680  33
1681  35
1682  43
1683  32
1684  34
1685  36
1686  31
1687  33
1688  35
1689  25
1690  31
1691  30
1692  22
1693  18
1694  20
1695  23
1696  22
1697  23
1698  13
1699  18
1700  17
1701  13
1702  12
1703  19
1704  12
1705  9
1706  8
1707  8
1708  7
1709  6
1710  5
1711  8
1712  9
1713  8
1714  10
1715  8
1716  9
1717  4
1718  7
1719  4
1720  4
1721  9
1722  5
1723  2
1724  5
1725  3
1726  8
1727  5
1728  3
1729  5
1730  6
1731  5
1732  6
1733  3
1734  7
1735  12
1736  7
1737  4
1738  9
1739  4
1740  5
1741  2
1742  9
1743  6
1744  5
1745  6
1746  5
1747  4
1748  4
1749  4
1750  3
1751  4
1752  1
1753  8
1754  2
1755  8
1756  3
1757  7
1758  1
1759  10
1760  8
1761  2
1762  6
1763  2
1764  7
1765  3
1766  6
1767  5
1768  7
1769  1
1770  4
1771  3
1772  1
1773  6
1774  4
1775  0
1776  2
1777  6
1778  5
1779  1
1780  4
1781  8
1782  7
1783  1
1784  5
1785  5
1786  1
1787  2
1788  2
1789  2
1790  1
1791  1
1792  3
1793  3
1794  1
1795  0
1796  4
1797  2
1798  2
1799  5
1800  2
1801  3
1802  1
1803  5
1804  4
1805  2
1806  0
1807  1
1808  1
1809  1
1810  3
1811  3
1812  2
1813  4
1814  1
1815  3
1816  1
1817  1
1818  2
1819  0
1820  2
1821  1
1822  2
1823  2
1824  0
1825  1
1826  1
1827  1
1828  1
1829  2
1830  3
1831  1
1832  3
1833  2
1834  3
1835  0
1836  3
1837  0
1838  1
1839  3
1840  2
1841  4
1842  1
1843  6
1844  3
1845  5
1846  4
1847  5
1848  3
1849  7
1850  12
1851  11
1852  15
1853  11
1854  11
1855  13
1856  12
1857  14
1858  16
1859  11
1860  12
1861  11
1862  13
1863  12
1864  19
1865  8
1866  15
1867  10
1868  12
1869  12
1870  11
1871  8
1872  6
1873  9
1874  9
1875  8
1876  12
1877  6
1878  8
1879  5
1880  9
1881  6
1882  3
1883  6
1884  5
1885  5
1886  3
1887  6
1888  5
1889  7
1890  9
1891  4
1892  1
1893  5
1894  3
1895  4
1896  2
1897  4
1898  4
1899  4
1900  1
1901  3
1902  4
1903  4
1904  3
1905  3
1906  1
1907  4
1908  2
1909  1
1910  2
1911  2
1912  2
1913  2
1914  1
1915  1
1916  3
1917  2
1918  2
1919  3
1920  2
1921  3
1922  0
1923  1
1924  1
1925  0
1926  3
1927  0
1928  2
1929  3
1930  1
1931  2
1932  2
1933  2
1934  1
1935  1
1936  3
1937  1
1938  1
1939  0
1940  0
1941  4
1942  1
1943  1
1944  4
1945  2
1946  4
1947  0
1948  0
1949  1
1950  1
1951  4
1952  2
1953  2
1954  0
1955  1
1956  1
1957  1
1958  1
1959  0
1960  1
1961  2
1962  3
1963  1
1964  2
1965  3
1966  3
1967  1
1968  1
1969  1
1970  2
1971  1
1972  1
1973  0
1974  0
1975  2
1976  3
1977  1
1978  0
1979  1
1980  4
1981  0
1982  1
1983  2
1984  1
1985  1
1986  2
1987  0
1988  3
1989  0
1990  1
1991  2
1992  1
1993  1
1994  2
1995  1
1996  0
1997  0
1998  1
1999  4
2000  1
2001  3
2002  1
2003  0
2004  2
2005  2
2006  2
2007  1
2008  3
2009  3
2010  1
2011  2
2012  2
2013  3
2014  1
2015  1
2016  0
2017  1
2018  2
2019  3
2020  1
2021  1
2022  0
2023  2
2024  2
2025  1
2026  1
2027  5
2028  3
2029  3
2030  3
2031  0
2032  2
2033  1
2034  0
2035  1
2036  1
2037  0
2038  5
2039  1
2040  2
2041  0
2042  5
2043  1
2044  4
2045  4
2046  2
2047  0
2048  3
2049  3
2050  0
2051  4
2052  2
2053  2
2054  3
2055  4
2056  1
2057  4
2058  0
2059  3
2060  0
2061  4
2062  4
2063  1
2064  2
2065  1
2066  1
2067  2
2068  2
2069  0
2070  0
2071  1
2072  1
2073  0
2074  1
2075  1
2076  0
2077  3
2078  5
2079  0
2080  0
2081  1
2082  1
2083  1
2084  2
2085  3
2086  1
2087  1
2088  2
2089  2
2090  1
2091  0
2092  1
2093  4
2094  0
2095  0
2096  1
2097  0
2098  3
2099  0
2100  0
2101  1
2102  3
2103  1
2104  1
2105  2
2106  1
2107  0
2108  1
2109  2
2110  1
2111  2
2112  0
2113  2
2114  1
2115  3
2116  1
2117  0
2118  5
2119  0
2120  0
2121  1
2122  2
2123  2
2124  0
2125  3
2126  1
2127  2
2128  0
2129  0
2130  2
2131  3
2132  2
2133  1
2134  1
2135  2
2136  0
2137  1
2138  3
2139  2
2140  1
2141  3
2142  1
2143  1
2144  4
2145  1
2146  3
2147  2
2148  3
2149  1
2150  0
2151  2
2152  1
2153  1
2154  4
2155  2
2156  2
2157  2
2158  2
2159  0
2160  3
2161  2
2162  3
2163  4
2164  3
2165  1
2166  2
2167  5
2168  0
2169  2
2170  2
2171  3
2172  2
2173  1
2174  0
2175  1
2176  1
2177  4
2178  1
2179  1
2180  3
2181  3
2182  2
2183  4
2184  2
2185  1
2186  1
2187  1
2188  1
2189  2
2190  1
2191  4
2192  1
2193  4
2194  2
2195  3
2196  0
2197  2
2198  3
2199  0
2200  1
2201  4
2202  1
2203  3
2204  2
2205  1
2206  1
2207  2
2208  3
2209  2
2210  1
2211  1
2212  1
2213  1
2214  2
2215  3
2216  2
2217  0
2218  3
2219  1
2220  2
2221  0
2222  1
2223  1
2224  3
2225  0
2226  3
2227  1
2228  2
2229  0
2230  4
2231  2
2232  1
2233  2
2234  1
2235  2
2236  4
2237  2
2238  4
2239  1
2240  1
2241  1
2242  3
2243  4
2244  3
2245  4
2246  1
2247  1
2248  3
2249  3
2250  1
2251  1
2252  0
2253  1
2254  2
2255  1
2256  4
2257  1
2258  1
2259  1
2260  3
2261  3
2262  2
2263  3
2264  3
2265  2
2266  1
2267  3
2268  5
2269  4
2270  2
2271  2
2272  1
2273  0
2274  1
2275  0
2276  3
2277  4
2278  0
2279  2
2280  1
2281  2
2282  5
2283  3
2284  4
2285  5
2286  1
2287  3
2288  0
2289  2
2290  1
2291  3
2292  0
2293  3
2294  4
2295  2
2296  4
2297  2
2298  0
2299  1
2300  0
2301  4
2302  2
2303  6
2304  2
2305  4
2306  3
2307  3
2308  2
2309  2
2310  2
2311  0
2312  1
2313  2
2314  0
2315  0
2316  0
2317  2
2318  1
2319  1
2320  0
2321  5
2322  0
2323  2
2324  3
2325  0
2326  1
2327  1
2328  3
2329  4
2330  1
2331  1
2332  0
2333  0
2334  1
2335  4
2336  3
2337  3
2338  2
2339  4
2340  1
2341  0
2342  1
2343  1
2344  3
2345  1
2346  1
2347  1
2348  1
2349  1
2350  2
2351  3
2352  1
2353  3
2354  2
2355  2
2356  0
2357  1
2358  1
2359  2
2360  2
2361  2
2362  2
2363  1
2364  3
2365  3
2366  0
2367  1
2368  2
2369  2
2370  3
2371  1
2372  1
2373  2
2374  2
2375  1
2376  1
2377  2
2378  3
2379  0
2380  2
2381  2
2382  4
2383  2
2384  4
2385  2
2386  2
2387  2
2388  1
2389  2
2390  1
2391  3
2392  3
2393  4
2394  0
2395  4
2396  1
2397  2
2398  2
2399  2
2400  4
2401  3
2402  1
2403  0
2404  3
2405  2
2406  2
2407  1
2408  2
2409  4
2410  3
2411  1
2412  2
2413  2
2414  3
2415  3
2416  2
2417  1
2418  1
2419  2
2420  1
2421  3
2422  2
2423  4
2424  3
2425  2
2426  1
2427  1
2428  2
2429  3
2430  1
2431  0
2432  3
2433  1
2434  4
2435  3
2436  1
2437  4
2438  2
2439  4
2440  0
2441  0
2442  2
2443  0
2444  1
2445  1
2446  3
2447  1
2448  3
2449  0
2450  1
2451  2
2452  2
2453  1
2454  0
2455  2
2456  1
2457  0
2458  3
2459  2
2460  2
2461  2
2462  2
2463  0
2464  3
2465  5
2466  4
2467  1
2468  7
2469  3
2470  0
2471  3
2472  1
2473  1
2474  4
2475  1
2476  2
2477  0
2478  2
2479  5
2480  1
2481  3
2482  0
2483  0
2484  1
2485  5
2486  0
2487  2
2488  2
2489  1
2490  1
2491  0
2492  1
2493  2
2494  3
2495  3
2496  1
2497  0
2498  2
2499  3
2500  2
2501  3
2502  2
2503  4
2504  1
2505  2
2506  1
2507  1
2508  2
2509  1
2510  4
2511  2
2512  2
2513  1
2514  2
2515  4
2516  4
2517  1
2518  2
2519  1
2520  0
2521  1
2522  3
2523  1
2524  1
2525  1
2526  1
2527  2
2528  3
2529  1
2530  2
2531  2
2532  2
2533  3
2534  4
2535  0
2536  3
2537  1
2538  2
2539  3
2540  1
2541  1
2542  5
2543  2
2544  4
2545  3
2546  3
2547  3
2548  1
2549  2
2550  2
2551  3
2552  2
2553  3
2554  0
2555  3
2556  2
2557  1
2558  4
2559  5
2560  4
2561  3
2562  1
2563  1
2564  2
2565  3
2566  1
2567  2
2568  3
2569  3
2570  0
2571  1
2572  0
2573  3
2574  2
2575  1
2576  3
2577  3
2578  2
2579  3
2580  1
2581  2
2582  1
2583  2
2584  2
2585  1
2586  6
2587  1
2588  0
2589  0
2590  2
2591  1
2592  2
2593  0
2594  2
2595  1
2596  2
2597  0
2598  1
2599  3
2600  0
2601  3
2602  1
2603  1
2604  2
2605  0
2606  0
2607  1
2608  3
2609  2
2610  2
2611  2
2612  4
2613  0
2614  4
2615  0
2616  1
2617  2
2618  1
2619  0
2620  2
2621  2
2622  0
2623  1
2624  2
2625  2
2626  0
2627  1
2628  2
2629  2
2630  3
2631  0
2632  1
2633  4
2634  1
2635  0
2636  1
2637  1
2638  1
2639  1
2640  2
2641  1
2642  4
2643  1
2644  3
2645  2
2646  0
2647  1
2648  0
2649  5
2650  0
2651  0
2652  3
2653  5
2654  0
2655  1
2656  1
2657  1
2658  2
2659  0
2660  1
2661  2
2662  1
2663  1
2664  0
2665  2
2666  0
2667  2
2668  1
2669  0
2670  1
2671  2
2672  1
2673  1
2674  1
2675  2
2676  1
2677  1
2678  2
2679  2
2680  4
2681  1
2682  1
2683  2
2684  1
2685  2
2686  0
2687  1
2688  1
2689  2
2690  0
2691  1
2692  2
2693  2
2694  0
2695  2
2696  0
2697  1
2698  1
2699  3
2700  0
2701  0
2702  0
2703  0
2704  2
2705  2
2706  2
2707  0
2708  3
2709  3
2710  2
2711  0
2712  1
2713  3
2714  2
2715  1
2716  0
2717  0
2718  1
2719  2
2720  1
2721  0
2722  2
2723  2
2724  2
2725  1
2726  2
2727  0
2728  2
2729  1
2730  0
2731  3
2732  0
2733  0
2734  0
2735  0
2736  0
2737  1
2738  2
2739  2
2740  5
2741  0
2742  4
2743  2
2744  2
2745  0
2746  1
2747  1
2748  1
2749  1
2750  0
2751  5
2752  3
2753  1
2754  0
2755  2
2756  0
2757  3
2758  2
2759  1
2760  0
2761  0
2762  0
2763  1
2764  2
2765  0
2766  0
2767  0
2768  0
2769  1
2770  0
2771  2
2772  0
2773  0
2774  1
2775  0
2776  2
2777  1
2778  0
2779  0
2780  0
2781  1
2782  1
2783  0
2784  1
2785  0
2786  1
2787  1
2788  1
2789  2
2790  0
2791  0
2792  0
2793  0
2794  0
2795  1
2796  1
2797  0
2798  0
2799  0
2800  1
2801  3
2802  1
2803  2
2804  0
2805  0
2806  1
2807  1
2808  1
2809  1
2810  0
2811  1
2812  1
2813  0
2814  1
2815  0
2816  1
2817  3
2818  1
2819  1
2820  2
2821  3
2822  1
2823  1
2824  0
2825  0
2826  1
2827  1
2828  1
2829  2
2830  0
2831  0
2832  1
2833  0
2834  2
2835  0
2836  0
2837  1
2838  0
2839  0
2840  0
2841  4
2842  1
2843  1
2844  1
2845  2
2846  0
2847  1
2848  2
2849  0
2850  1
2851  0
2852  2
2853  1
2854  2
2855  2
2856  1
2857  0
2858  0
2859  0
2860  1
2861  0
2862  1
2863  1
2864  0
2865  2
2866  0
2867  1
2868  1
2869  1
2870  0
2871  2
2872  2
2873  0
2874  0
2875  0
2876  0
2877  1
2878  0
2879  1
2880  0
2881  0
2882  1
2883  0
2884  0
2885  0
2886  0
2887  2
2888  0
2889  1
2890  0
2891  1
2892  0
2893  0
2894  0
2895  0
2896  0
2897  1
2898  0
2899  2
2900  0
2901  0
2902  2
2903  1
2904  1
2905  1
2906  1
2907  1
2908  1
2909  0
2910  2
2911  1
2912  1
2913  0
2914  1
2915  1
2916  0
2917  1
2918  1
2919  2
2920  0
2921  0
2922  0
2923  0
2924  1
2925  2
2926  1
2927  1
2928  1
2929  0
2930  1
2931  1
2932  0
2933  1
2934  0
2935  0
2936  2
2937  1
2938  0
2939  0
2940  0
2941  0
2942  0
2943  2
2944  1
2945  1
2946  3
2947  0
2948  0
2949  1
2950  0
2951  1
2952  0
2953  2
2954  0
2955  0
2956  0
2957  1
2958  1
2959  0
2960  0
2961  0
2962  0
2963  0
2964  0
2965  0
2966  0
2967  0
2968  1
2969  1
2970  1
2971  0
2972  0
2973  0
2974  0
2975  2
2976  0
2977  1
2978  0
2979  2
2980  0
2981  0
2982  1
2983  0
2984  0
2985  0
2986  2
2987  1
2988  0
2989  0
2990  1
2991  1
2992  0
2993  0
2994  0
2995  1
2996  0
2997  1
2998  1
2999  0
3000  0
3001  0
3002  1
3003  0
3004  0
3005  1
3006  3
3007  1
3008  0
3009  1
3010  0
3011  1
3012  1
3013  1
3014  0
3015  0
3016  0
3017  0
3018  1
3019  1
3020  0
3021  0
3022  2
3023  2
3024  0
3025  0
3026  0
3027  1
3028  2
3029  0
3030  1
3031  1
3032  0
3033  0
3034  0
3035  0
3036  0
3037  1
3038  1
3039  1
3040  1
3041  2
3042  0
3043  1
3044  0
3045  0
3046  0
3047  1
3048  0
3049  1
3050  0
3051  0
3052  1
3053  1
3054  1
3055  0
3056  0
3057  1
3058  4
3059  0
3060  0
3061  1
3062  0
3063  1
3064  1
3065  0
3066  1
3067  1
3068  0
3069  1
3070  0
3071  0
3072  0
3073  0
3074  0
3075  0
3076  0
3077  0
3078  1
3079  0
3080  2
3081  1
3082  0
3083  1
3084  0
3085  1
3086  1
3087  2
3088  1
3089  1
3090  0
3091  1
3092  0
3093  0
3094  0
3095  2
3096  0
3097  1
3098  1
3099  0
3100  0
3101  0
3102  1
3103  1
3104  1
3105  1
3106  0
3107  1
3108  0
3109  0
3110  0
3111  0
3112  1
3113  0
3114  0
3115  0
3116  1
3117  2
3118  0
3119  0
3120  0
3121  1
3122  0
3123  0
3124  0
3125  0
3126  1
3127  0
3128  1
3129  1
3130  0
3131  1
3132  0
3133  1
3134  0
3135  1
3136  2
3137  0
3138  1
3139  0
3140  1
3141  1
3142  0
3143  1
3144  0
3145  0
3146  0
3147  1
3148  1
3149  0
3150  0
3151  0
3152  0
3153  2
3154  1
3155  1
3156  0
3157  1
3158  0
3159  2
3160  1
3161  1
3162  0
3163  1
3164  1
3165  1
3166  0
3167  2
3168  2
3169  1
3170  1
3171  1
3172  0
3173  0
3174  0
3175  2
3176  0
3177  0
3178  0
3179  3
3180  0
3181  1
3182  1
3183  0
3184  1
3185  0
3186  1
3187  1
3188  0
3189  0
3190  0
3191  0
3192  0
3193  1
3194  1
3195  0
3196  0
3197  1
3198  1
3199  0
3200  0
3201  1
3202  0
3203  1
3204  0
3205  0
3206  1
3207  3
3208  2
3209  0
3210  3
3211  1
3212  1
3213  0
3214  2
3215  4
3216  1
3217  2
3218  0
3219  1
3220  0
3221  1
3222  0
3223  1
3224  0
3225  1
3226  0
3227  2
3228  0
3229  1
3230  1
3231  0
3232  1
3233  0
3234  0
3235  0
3236  1
3237  1
3238  1
3239  1
3240  0
3241  0
3242  0
3243  3
3244  0
3245  0
3246  0
3247  1
3248  0
3249  1
3250  0
3251  1
3252  0
3253  0
3254  0
3255  0
3256  2
3257  2
3258  0
3259  3
3260  0
3261  1
3262  1
3263  1
3264  1
3265  0
3266  2
3267  1
3268  1
3269  0
3270  0
3271  1
3272  1
3273  1
3274  0
3275  1
3276  2
3277  0
3278  1
3279  1
3280  1
3281  0
3282  2
3283  0
3284  1
3285  1
3286  0
3287  1
3288  0
3289  0
3290  1
3291  0
3292  1
3293  2
3294  0
3295  1
3296  2
3297  0
3298  0
3299  1
3300  0
3301  0
3302  1
3303  0
3304  2
3305  1
3306  2
3307  1
3308  0
3309  0
3310  0
3311  1
3312  0
3313  0
3314  0
3315  1
3316  1
3317  2
3318  2
3319  1
3320  2
3321  1
3322  0
3323  0
3324  1
3325  0
3326  0
3327  2
3328  0
3329  0
3330  0
3331  0
3332  0
3333  0
3334  0
3335  1
3336  2
3337  0
3338  0
3339  0
3340  0
3341  1
3342  0
3343  1
3344  0
3345  2
3346  0
3347  0
3348  1
3349  4
3350  1
3351  1
3352  0
3353  2
3354  0
3355  0
3356  1
3357  1
3358  2
3359  0
3360  0
3361  1
3362  1
3363  1
3364  1
3365  2
3366  0
3367  0
3368  1
3369  1
3370  2
3371  0
3372  0
3373  0
3374  1
3375  3
3376  2
3377  1
3378  0
3379  1
3380  0
3381  0
3382  1
3383  2
3384  3
3385  0
3386  1
3387  1
3388  1
3389  0
3390  1
3391  0
3392  0
3393  0
3394  1
3395  2
3396  0
3397  2
3398  4
3399  0
3400  2
3401  0
3402  3
3403  1
3404  3
3405  1
3406  1
3407  0
3408  2
3409  0
3410  1
3411  1
3412  0
3413  0
3414  3
3415  4
3416  0
3417  0
3418  0
3419  3
3420  0
3421  0
3422  0
3423  1
3424  0
3425  0
3426  0
3427  4
3428  0
3429  1
3430  2
3431  3
3432  0
3433  0
3434  0
3435  0
3436  0
3437  2
3438  1
3439  3
3440  0
3441  0
3442  4
3443  1
3444  1
3445  3
3446  0
3447  3
3448  1
3449  1
3450  1
3451  1
3452  1
3453  3
3454  4
3455  6
3456  5
3457  6
3458  10
3459  5
3460  9
3461  6
3462  7
3463  7
3464  13
3465  11
3466  23
3467  17
3468  15
3469  23
3470  23
3471  17
3472  19
3473  19
3474  25
3475  19
3476  33
3477  25
3478  31
3479  32
3480  31
3481  27
3482  27
3483  23
3484  20
3485  18
3486  22
3487  21
3488  14
3489  15
3490  13
3491  8
3492  13
3493  10
3494  5
3495  13
3496  9
3497  9
3498  12
3499  5
3500  8
3501  6
3502  10
3503  10
3504  5
3505  4
3506  4
3507  5
3508  2
3509  5
3510  3
3511  5
3512  5
3513  5
3514  1
3515  5
3516  3
3517  2
3518  2
3519  2
3520  2
3521  2
3522  2
3523  2
3524  4
3525  3
3526  1
3527  7
3528  5
3529  4
3530  1
3531  5
3532  3
3533  0
3534  0
3535  2
3536  4
3537  6
3538  1
3539  4
3540  3
3541  4
3542  8
3543  6
3544  9
3545  8
3546  12
3547  14
3548  9
3549  17
3550  17
3551  25
3552  18
3553  25
3554  23
3555  31
3556  26
3557  20
3558  25
3559  35
3560  27
3561  26
3562  41
3563  27
3564  27
3565  42
3566  44
3567  33
3568  24
3569  30
3570  32
3571  26
3572  23
3573  28
3574  19
3575  18
3576  23
3577  24
3578  19
3579  17
3580  16
3581  10
3582  11
3583  17
3584  11
3585  16
3586  12
3587  13
3588  14
3589  14
3590  9
3591  8
3592  5
3593  4
3594  4
3595  9
3596  5
3597  5
3598  16
3599  4
3600  12
3601  4
3602  4
3603  5
3604  6
3605  6
3606  1
3607  4
3608  4
3609  8
3610  9
3611  6
3612  4
3613  5
3614  4
3615  6
3616  3
3617  4
3618  4
3619  5
3620  1
3621  5
3622  6
3623  4
3624  3
3625  1
3626  6
3627  7
3628  4
3629  4
3630  5
3631  1
3632  5
3633  5
3634  1
3635  4
3636  3
3637  4
3638  4
3639  3
3640  1
3641  2
3642  8
3643  7
3644  4
3645  8
3646  4
3647  6
3648  2
3649  6
3650  6
3651  6
3652  7
3653  5
3654  6
3655  3
3656  3
3657  5
3658  2
3659  5
3660  4
3661  2
3662  3
3663  2
3664  6
3665  5
3666  3
3667  2
3668  2
3669  3
3670  2
3671  2
3672  1
3673  2
3674  2
3675  2
3676  3
3677  2
3678  3
3679  1
3680  2
3681  2
3682  2
3683  1
3684  3
3685  0
3686  5
3687  2
3688  0
3689  4
3690  2
3691  0
3692  1
3693  1
3694  1
3695  1
3696  2
3697  2
3698  3
3699  1
3700  5
3701  2
3702  1
3703  0
3704  2
3705  1
3706  2
3707  2
3708  3
3709  2
3710  2
3711  1
3712  2
3713  2
3714  2
3715  1
3716  1
3717  0
3718  2
3719  3
3720  3
3721  5
3722  2
3723  6
3724  1
3725  0
3726  4
3727  3
3728  5
3729  2
3730  4
3731  6
3732  4
3733  8
3734  12
3735  7
3736  5
3737  5
3738  13
3739  7
3740  7
3741  15
3742  13
3743  9
3744  12
3745  8
3746  6
3747  18
3748  15
3749  13
3750  16
3751  10
3752  10
3753  10
3754  15
3755  5
3756  4
3757  6
3758  4
3759  7
3760  4
3761  8
3762  7
3763  8
3764  4
3765  8
3766  4
3767  4
3768  1
3769  6
3770  4
3771  3
3772  3
3773  5
3774  1
3775  2
3776  2
3777  5
3778  2
3779  0
3780  6
3781  3
3782  2
3783  3
3784  3
3785  1
3786  0
3787  5
3788  1
3789  3
3790  1
3791  4
3792  4
3793  2
3794  4
3795  2
3796  1
3797  1
3798  1
3799  0
3800  4
3801  3
3802  1
3803  2
3804  2
3805  1
3806  0
3807  0
3808  2
3809  0
3810  1
3811  0
3812  2
3813  1
3814  1
3815  3
3816  2
3817  2
3818  1
3819  1
3820  1
3821  2
3822  2
3823  1
3824  2
3825  1
3826  2
3827  1
3828  2
3829  2
3830  3
3831  1
3832  3
3833  1
3834  2
3835  1
3836  2
3837  1
3838  1
3839  2
3840  0
3841  0
3842  0
3843  0
3844  0
3845  0
3846  0
3847  0
3848  0
3849  0
3850  0
3851  0
3852  0
3853  0
3854  0
3855  0
3856  0
3857  0
3858  0
3859  0
3860  0
3861  0
3862  0
3863  0
3864  0
3865  0
3866  0
3867  0
3868  0
3869  0
3870  0
3871  0
3872  0
3873  0
3874  0
3875  0
3876  0
3877  0
3878  0
3879  0
3880  0
3881  0
3882  0
3883  0
3884  0
3885  0
3886  0
3887  0
3888  0
3889  0
3890  0
3891  0
3892  0
3893  0
3894  0
3895  0
3896  0
3897  0
3898  0
3899  0
3900  0
3901  0
3902  0
3903  0
3904  0
3905  0
3906  0
3907  0
3908  0
3909  0
3910  0
3911  0
3912  0
3913  0
3914  0
3915  0
3916  0
3917  0
3918  0
3919  0
3920  0
3921  0
3922  0
3923  0
3924  0
3925  0
3926  0
3927  0
3928  0
3929  0
3930  0
3931  0
3932  0
3933  0
3934  0
3935  0
3936  0
3937  0
3938  0
3939  0
3940  0
3941  0
3942  0
3943  0
3944  0
3945  0
3946  0
3947  0
3948  0
3949  0
3950  0
3951  0
3952  0
3953  0
3954  0
3955  0
3956  0
3957  0
3958  0
3959  0
3960  0
3961  0
3962  0
3963  0
3964  0
3965  0
3966  0
3967  0
3968  0
3969  0
3970  0
3971  0
3972  0
3973  0
3974  0
3975  0
3976  0
3977  0
3978  0
3979  0
3980  0
3981  0
3982  0
3983  0
3984  0
3985  0
3986  0
3987  0
3988  0
3989  0
3990  0
3991  0
3992  0
3993  0
3994  0
3995  0
3996  0
3997  0
3998  0
3999  0
4000  0
4001  0
4002  0
4003  0
4004  0
4005  0
4006  0
4007  0
4008  0
4009  0
4010  0
4011  0
4012  0
4013  0
4014  0
4015  0
4016  0
4017  0
4018  0
4019  0
4020  0
4021  0
4022  0
4023  0
4024  0
4025  0
4026  0
4027  0
4028  0
4029  0
4030  0
4031  0
4032  0
4033  0
4034  0
4035  0
4036  0
4037  0
4038  0
4039  0
4040  0
4041  0
4042  0
4043  0
4044  0
4045  0
4046  0
4047  0
4048  0
4049  0
4050  0
4051  0
4052  0
4053  0
4054  0
4055  0
4056  0
4057  0
4058  0
4059  0
4060  0
4061  0
4062  0
4063  0
4064  0
4065  0
4066  0
4067  0
4068  0
4069  0
4070  0
4071  0
4072  0
4073  0
4074  0
4075  0
4076  0
4077  0
4078  0
4079  0
4080  0
4081  0
4082  0
4083  0
4084  0
4085  0
4086  0
4087  0
4088  0
4089  0
4090  0
4091  0
4092  0
4093  0
4094  0
4095  0
