0  0
1  0
2  0
3  0
4  0
5  0
6  0
7  0
8  0
9  0
10  0
11  0
12  0
13  0
14  0
15  0
16  0
17  0
18  0
19  0
20  0
21  0
22  0
23  0
24  0
25  0
26  0
27  0
28  0
29  0
30  0
31  0
32  0
33  0
34  0
35  0
36  0
37  0
38  0
39  0
40  0
41  0
42  0
43  0
44  0
45  0
46  0
47  0
48  0
49  0
50  0
51  0
52  0
53  0
54  0
55  0
56  0
57  0
58  0
59  0
60  0
61  0
62  0
63  0
64  0
65  0
66  0
67  0
68  0
69  0
70  0
71  0
72  0
73  0
74  0
75  0
76  0
77  0
78  0
79  0
80  0
81  0
82  0
83  0
84  0
85  0
86  0
87  0
88  0
89  0
90  0
91  0
92  0
93  0
94  0
95  0
96  0
97  0
98  0
99  0
100  0
101  0
102  0
103  0
104  0
105  0
106  0
107  0
108  0
109  0
110  0
111  0
112  0
113  0
114  0
115  0
116  0
117  0
118  0
119  0
120  0
121  0
122  0
123  0
124  0
125  0
126  0
127  0
128  0
129  0
130  0
131  0
132  0
133  0
134  0
135  0
136  0
137  0
138  0
139  0
140  0
141  0
142  0
143  0
144  0
145  0
146  0
147  0
148  0
149  0
150  0
151  0
152  0
153  0
154  0
155  0
156  0
157  0
158  0
159  0
160  0
161  0
162  0
163  0
164  0
165  0
166  0
167  0
168  0
169  0
170  0
171  0
172  0
173  0
174  0
175  0
176  0
177  0
178  0
179  0
180  0
181  0
182  0
183  0
184  0
185  0
186  0
187  0
188  0
189  0
190  0
191  0
192  0
193  0
194  0
195  0
196  0
197  0
198  0
199  0
200  0
201  0
202  0
203  0
204  0
205  0
206  0
207  0
208  0
209  0
210  0
211  0
212  0
213  0
214  0
215  0
216  0
217  0
218  0
219  0
220  0
221  0
222  0
223  0
224  0
225  0
226  0
227  0
228  0
229  0
230  0
231  0
232  0
233  0
234  0
235  0
236  0
237  0
238  0
239  0
240  0
241  0
242  0
243  0
244  0
245  0
246  0
247  0
248  0
249  0
250  0
251  0
252  0
253  0
254  0
255  0
256  0
257  0
258  0
259  0
260  0
261  0
262  0
263  0
264  0
265  0
266  0
267  0
268  0
269  0
270  0
271  0
272  0
273  0
274  0
275  0
276  0
277  0
278  0
279  0
280  0
281  0
282  0
283  0
284  0
285  0
286  0
287  0
288  0
289  0
290  0
291  0
292  0
293  0
294  0
295  0
296  0
297  0
298  0
299  0
300  0
301  0
302  0
303  0
304  0
305  0
306  0
307  0
308  0
309  0
310  0
311  0
312  0
313  0
314  0
315  0
316  0
317  0
318  0
319  0
320  0
321  0
322  0
323  0
324  0
325  0
326  0
327  0
328  0
329  0
330  0
331  0
332  0
333  0
334  0
335  0
336  0
337  0
338  0
339  0
340  0
341  0
342  0
343  0
344  0
345  0
346  0
347  0
348  0
349  0
350  0
351  0
352  0
353  0
354  0
355  0
356  0
357  0
358  0
359  0
360  0
361  0
362  0
363  0
364  0
365  0
366  0
367  0
368  0
369  0
370  0
371  0
372  0
373  0
374  0
375  0
376  0
377  0
378  0
379  0
380  0
381  0
382  0
383  0
384  0
385  0
386  0
387  0
388  0
389  0
390  0
391  0
392  0
393  0
394  0
395  0
396  0
397  0
398  0
399  0
400  0
401  0
402  0
403  0
404  0
405  0
406  0
407  0
408  0
409  0
410  0
411  0
412  0
413  0
414  0
415  0
416  0
417  0
418  0
419  0
420  0
421  0
422  0
423  0
424  0
425  0
426  0
427  0
428  0
429  0
430  0
431  0
432  0
433  0
434  0
435  0
436  0
437  0
438  0
439  0
440  0
441  0
442  0
443  0
444  0
445  0
446  0
447  0
448  0
449  0
450  0
451  0
452  0
453  0
454  0
455  0
456  0
457  0
458  0
459  0
460  0
461  0
462  0
463  0
464  0
465  0
466  0
467  0
468  0
469  0
470  0
471  0
472  0
473  0
474  0
475  0
476  0
477  0
478  0
479  0
480  0
481  0
482  0
483  0
484  0
485  0
486  0
487  0
488  0
489  0
490  0
491  0
492  0
493  0
494  0
495  0
496  0
497  0
498  0
499  0
500  0
501  0
502  0
503  0
504  0
505  0
506  0
507  0
508  0
509  0
510  0
511  0
512  0
513  0
514  0
515  0
516  0
517  0
518  0
519  0
520  0
521  0
522  0
523  0
524  0
525  0
526  0
527  0
528  0
529  0
530  0
531  0
532  0
533  0
534  0
535  0
536  0
537  0
538  0
539  0
540  0
541  0
542  0
543  0
544  0
545  0
546  0
547  0
548  0
549  0
550  0
551  0
552  0
553  0
554  0
555  0
556  0
557  0
558  0
559  0
560  0
561  0
562  0
563  0
564  0
565  0
566  0
567  0
568  0
569  0
570  0
571  0
572  0
573  0
574  0
575  0
576  0
577  0
578  0
579  0
580  0
581  0
582  0
583  0
584  0
585  0
586  0
587  0
588  0
589  0
590  0
591  0
592  0
593  0
594  0
595  0
596  0
597  0
598  0
599  0
600  0
601  0
602  0
603  0
604  0
605  0
606  0
607  0
608  0
609  0
610  0
611  0
612  0
613  0
614  0
615  0
616  0
617  0
618  0
619  0
620  0
621  0
622  0
623  0
624  0
625  0
626  0
627  0
628  0
629  0
630  0
631  0
632  0
633  0
634  0
635  0
636  0
637  0
638  0
639  0
640  0
641  0
642  0
643  0
644  0
645  0
646  0
647  0
648  0
649  0
650  0
651  0
652  0
653  0
654  0
655  0
656  0
657  0
658  0
659  0
660  0
661  0
662  0
663  0
664  0
665  0
666  0
667  0
668  0
669  0
670  0
671  0
672  0
673  0
674  0
675  0
676  0
677  0
678  0
679  0
680  0
681  0
682  0
683  0
684  0
685  0
686  0
687  0
688  0
689  0
690  0
691  0
692  0
693  0
694  0
695  0
696  0
697  0
698  0
699  0
700  0
701  0
702  0
703  0
704  0
705  0
706  0
707  0
708  0
709  0
710  0
711  0
712  0
713  0
714  0
715  0
716  0
717  0
718  0
719  0
720  0
721  0
722  0
723  0
724  0
725  0
726  0
727  0
728  0
729  0
730  0
731  0
732  0
733  0
734  0
735  0
736  0
737  0
738  0
739  0
740  0
741  0
742  0
743  0
744  0
745  0
746  0
747  0
748  0
749  0
750  0
751  0
752  0
753  0
754  0
755  0
756  0
757  0
758  0
759  0
760  0
761  0
762  0
763  0
764  0
765  0
766  0
767  0
768  0
769  0
770  0
771  0
772  0
773  0
774  0
775  0
776  0
777  0
778  0
779  0
780  0
781  0
782  0
783  0
784  0
785  0
786  0
787  0
788  0
789  0
790  0
791  0
792  0
793  0
794  0
795  0
796  0
797  0
798  0
799  0
800  0
801  0
802  0
803  0
804  0
805  0
806  0
807  0
808  0
809  0
810  0
811  0
812  0
813  0
814  0
815  0
816  0
817  0
818  0
819  0
820  0
821  0
822  0
823  0
824  0
825  0
826  0
827  0
828  0
829  0
830  0
831  0
832  0
833  0
834  0
835  0
836  0
837  0
838  0
839  0
840  0
841  0
842  0
843  0
844  0
845  0
846  0
847  0
848  0
849  0
850  0
851  0
852  0
853  0
854  0
855  0
856  0
857  0
858  0
859  0
860  0
861  0
862  0
863  0
864  0
865  0
866  0
867  0
868  0
869  0
870  0
871  0
872  0
873  0
874  0
875  0
876  0
877  0
878  0
879  0
880  0
881  0
882  0
883  0
884  0
885  0
886  0
887  0
888  0
889  0
890  0
891  0
892  0
893  0
894  0
895  0
896  0
897  0
898  0
899  0
900  0
901  0
902  0
903  0
904  0
905  0
906  0
907  0
908  0
909  0
910  0
911  0
912  0
913  0
914  0
915  0
916  0
917  0
918  0
919  0
920  0
921  0
922  0
923  0
924  0
925  0
926  0
927  0
928  0
929  0
930  0
931  0
932  0
933  0
934  0
935  0
936  0
937  0
938  0
939  0
940  0
941  0
942  0
943  0
944  0
945  0
946  0
947  0
948  0
949  0
950  0
951  0
952  0
953  0
954  0
955  0
956  0
957  0
958  0
959  0
960  0
961  0
962  0
963  0
964  0
965  0
966  0
967  0
968  0
969  0
970  0
971  0
972  0
973  0
974  0
975  0
976  0
977  0
978  0
979  0
980  0
981  0
982  0
983  0
984  0
985  0
986  0
987  0
988  0
989  0
990  0
991  0
992  0
993  0
994  0
995  0
996  0
997  0
998  0
999  0
1000  0
1001  0
1002  0
1003  0
1004  0
1005  0
1006  0
1007  0
1008  0
1009  0
1010  0
1011  0
1012  0
1013  0
1014  0
1015  0
1016  0
1017  0
1018  0
1019  0
1020  0
1021  0
1022  0
1023  0
1024  0
1025  0
1026  0
1027  0
1028  0
1029  0
1030  0
1031  0
1032  0
1033  0
1034  0
1035  0
1036  0
1037  0
1038  0
1039  0
1040  0
1041  0
1042  0
1043  0
1044  0
1045  0
1046  0
1047  0
1048  0
1049  0
1050  0
1051  0
1052  0
1053  0
1054  0
1055  0
1056  0
1057  0
1058  0
1059  0
1060  0
1061  0
1062  0
1063  0
1064  0
1065  0
1066  0
1067  0
1068  0
1069  0
1070  0
1071  0
1072  0
1073  0
1074  0
1075  0
1076  0
1077  0
1078  0
1079  0
1080  0
1081  0
1082  0
1083  0
1084  0
1085  0
1086  0
1087  0
1088  0
1089  0
1090  0
1091  0
1092  0
1093  0
1094  0
1095  0
1096  0
1097  0
1098  0
1099  0
1100  0
1101  0
1102  0
1103  0
1104  0
1105  0
1106  0
1107  0
1108  0
1109  0
1110  0
1111  0
1112  0
1113  0
1114  0
1115  0
1116  0
1117  0
1118  0
1119  0
1120  0
1121  0
1122  0
1123  0
1124  0
1125  0
1126  0
1127  0
1128  0
1129  0
1130  0
1131  0
1132  0
1133  0
1134  0
1135  0
1136  0
1137  0
1138  0
1139  0
1140  0
1141  0
1142  0
1143  0
1144  0
1145  0
1146  0
1147  0
1148  0
1149  0
1150  0
1151  0
1152  0
1153  0
1154  0
1155  0
1156  0
1157  0
1158  0
1159  0
1160  0
1161  0
1162  0
1163  0
1164  0
1165  0
1166  0
1167  0
1168  0
1169  0
1170  0
1171  0
1172  0
1173  0
1174  0
1175  0
1176  0
1177  0
1178  0
1179  0
1180  0
1181  0
1182  0
1183  0
1184  0
1185  0
1186  0
1187  0
1188  0
1189  0
1190  0
1191  0
1192  0
1193  0
1194  0
1195  0
1196  0
1197  0
1198  0
1199  0
1200  0
1201  0
1202  0
1203  0
1204  0
1205  0
1206  0
1207  0
1208  0
1209  0
1210  0
1211  0
1212  0
1213  0
1214  0
1215  0
1216  0
1217  0
1218  0
1219  0
1220  0
1221  0
1222  0
1223  0
1224  0
1225  0
1226  0
1227  0
1228  0
1229  0
1230  0
1231  0
1232  0
1233  0
1234  0
1235  0
1236  0
1237  0
1238  0
1239  0
1240  0
1241  0
1242  0
1243  0
1244  0
1245  0
1246  0
1247  0
1248  0
1249  0
1250  0
1251  0
1252  0
1253  0
1254  0
1255  0
1256  0
1257  0
1258  0
1259  0
1260  0
1261  0
1262  0
1263  0
1264  0
1265  0
1266  0
1267  0
1268  0
1269  0
1270  0
1271  0
1272  0
1273  0
1274  0
1275  0
1276  0
1277  0
1278  0
1279  0
1280  0
1281  0
1282  0
1283  0
1284  0
1285  0
1286  0
1287  0
1288  0
1289  0
1290  0
1291  0
1292  0
1293  0
1294  0
1295  0
1296  0
1297  0
1298  0
1299  0
1300  0
1301  0
1302  0
1303  0
1304  0
1305  0
1306  0
1307  0
1308  0
1309  0
1310  0
1311  0
1312  0
1313  0
1314  0
1315  0
1316  0
1317  0
1318  0
1319  0
1320  0
1321  0
1322  0
1323  0
1324  0
1325  0
1326  0
1327  0
1328  0
1329  0
1330  0
1331  0
1332  0
1333  0
1334  0
1335  0
1336  0
1337  0
1338  0
1339  0
1340  0
1341  0
1342  0
1343  0
1344  0
1345  0
1346  0
1347  0
1348  0
1349  0
1350  0
1351  0
1352  0
1353  0
1354  0
1355  0
1356  0
1357  0
1358  0
1359  0
1360  0
1361  0
1362  0
1363  0
1364  0
1365  0
1366  0
1367  0
1368  0
1369  0
1370  0
1371  0
1372  0
1373  0
1374  0
1375  0
1376  0
1377  0
1378  0
1379  0
1380  0
1381  0
1382  0
1383  0
1384  0
1385  0
1386  0
1387  0
1388  0
1389  0
1390  0
1391  0
1392  0
1393  0
1394  0
1395  0
1396  0
1397  0
1398  0
1399  0
1400  0
1401  0
1402  0
1403  0
1404  0
1405  0
1406  0
1407  0
1408  0
1409  0
1410  0
1411  0
1412  0
1413  0
1414  0
1415  0
1416  0
1417  0
1418  0
1419  0
1420  0
1421  0
1422  0
1423  0
1424  0
1425  0
1426  0
1427  0
1428  0
1429  0
1430  0
1431  0
1432  0
1433  0
1434  0
1435  0
1436  0
1437  0
1438  0
1439  0
1440  0
1441  0
1442  0
1443  0
1444  0
1445  0
1446  0
1447  0
1448  0
1449  0
1450  0
1451  0
1452  0
1453  0
1454  0
1455  0
1456  0
1457  0
1458  0
1459  0
1460  0
1461  0
1462  0
1463  0
1464  0
1465  0
1466  0
1467  0
1468  0
1469  0
1470  0
1471  0
1472  0
1473  0
1474  0
1475  0
1476  0
1477  0
1478  0
1479  0
1480  0
1481  0
1482  0
1483  0
1484  0
1485  0
1486  0
1487  0
1488  0
1489  0
1490  0
1491  0
1492  0
1493  0
1494  0
1495  0
1496  0
1497  0
1498  0
1499  0
1500  0
1501  0
1502  0
1503  0
1504  0
1505  0
1506  0
1507  0
1508  0
1509  0
1510  0
1511  0
1512  0
1513  0
1514  0
1515  0
1516  0
1517  0
1518  0
1519  0
1520  0
1521  0
1522  0
1523  0
1524  0
1525  0
1526  0
1527  0
1528  0
1529  0
1530  0
1531  0
1532  0
1533  0
1534  0
1535  0
1536  0
1537  0
1538  0
1539  0
1540  0
1541  0
1542  0
1543  0
1544  0
1545  0
1546  0
1547  0
1548  0
1549  0
1550  0
1551  0
1552  0
1553  0
1554  0
1555  0
1556  0
1557  0
1558  0
1559  0
1560  0
1561  0
1562  0
1563  0
1564  0
1565  0
1566  0
1567  0
1568  0
1569  0
1570  0
1571  0
1572  0
1573  0
1574  0
1575  0
1576  0
1577  0
1578  0
1579  0
1580  0
1581  0
1582  0
1583  0
1584  0
1585  0
1586  0
1587  0
1588  0
1589  0
1590  0
1591  0
1592  0
1593  0
1594  0
1595  0
1596  1
1597  2
1598  9
1599  22
1600  77
1601  287
1602  949
1603  2314
1604  4196
1605  5672
1606  6523
1607  7109
1608  7268
1609  7358
1610  7842
1611  7766
1612  7910
1613  8222
1614  8328
1615  8264
1616  8487
1617  8316
1618  8584
1619  8237
1620  8262
1621  8320
1622  8274
1623  8084
1624  8247
1625  8066
1626  8016
1627  7861
1628  7612
1629  7428
1630  7262
1631  7168
1632  6909
1633  6811
1634  6471
1635  6333
1636  6033
1637  5979
1638  5862
1639  5461
1640  5354
1641  5236
1642  4938
1643  4722
1644  4535
1645  4408
1646  4230
1647  4073
1648  3837
1649  3686
1650  3564
1651  3443
1652  3228
1653  3121
1654  3023
1655  2877
1656  2823
1657  2629
1658  2521
1659  2330
1660  2258
1661  2266
1662  2119
1663  2009
1664  1979
1665  1845
1666  1816
1667  1640
1668  1582
1669  1509
1670  1512
1671  1439
1672  1253
1673  1311
1674  1250
1675  1184
1676  1114
1677  1047
1678  1085
1679  928
1680  933
1681  927
1682  887
1683  804
1684  779
1685  793
1686  702
1687  715
1688  645
1689  599
1690  600
1691  566
1692  520
1693  532
1694  513
1695  485
1696  456
1697  449
1698  442
1699  437
1700  426
1701  417
1702  357
1703  349
1704  316
1705  321
1706  356
1707  346
1708  314
1709  326
1710  300
1711  275
1712  306
1713  247
1714  270
1715  228
1716  220
1717  223
1718  220
1719  222
1720  208
1721  230
1722  200
1723  179
1724  194
1725  172
1726  165
1727  155
1728  168
1729  155
1730  133
1731  157
1732  147
1733  120
1734  130
1735  132
1736  125
1737  101
1738  151
1739  107
1740  118
1741  129
1742  104
1743  96
1744  84
1745  117
1746  94
1747  83
1748  85
1749  85
1750  106
1751  90
1752  89
1753  90
1754  92
1755  73
1756  82
1757  80
1758  84
1759  89
1760  78
1761  75
1762  58
1763  63
1764  70
1765  63
1766  83
1767  72
1768  77
1769  78
1770  73
1771  72
1772  72
1773  67
1774  70
1775  61
1776  66
1777  68
1778  66
1779  76
1780  67
1781  49
1782  61
1783  71
1784  69
1785  66
1786  58
1787  64
1788  68
1789  49
1790  46
1791  62
1792  64
1793  52
1794  52
1795  61
1796  55
1797  67
1798  60
1799  59
1800  63
1801  49
1802  64
1803  80
1804  70
1805  65
1806  59
1807  60
1808  72
1809  70
1810  72
1811  69
1812  72
1813  79
1814  57
1815  76
1816  79
1817  61
1818  76
1819  85
1820  88
1821  89
1822  83
1823  77
1824  72
1825  75
1826  94
1827  82
1828  96
1829  101
1830  91
1831  98
1832  91
1833  93
1834  99
1835  96
1836  80
1837  99
1838  107
1839  117
1840  108
1841  114
1842  92
1843  116
1844  137
1845  104
1846  105
1847  129
1848  126
1849  119
1850  137
1851  117
1852  125
1853  141
1854  134
1855  124
1856  130
1857  133
1858  132
1859  144
1860  145
1861  134
1862  154
1863  152
1864  166
1865  167
1866  158
1867  165
1868  174
1869  192
1870  174
1871  184
1872  189
1873  169
1874  183
1875  198
1876  192
1877  212
1878  173
1879  198
1880  197
1881  194
1882  203
1883  167
1884  196
1885  207
1886  216
1887  199
1888  224
1889  220
1890  241
1891  204
1892  212
1893  233
1894  222
1895  246
1896  252
1897  226
1898  254
1899  219
1900  257
1901  266
1902  262
1903  235
1904  285
1905  235
1906  278
1907  268
1908  251
1909  239
1910  259
1911  287
1912  309
1913  276
1914  271
1915  241
1916  266
1917  304
1918  271
1919  254
1920  289
1921  300
1922  309
1923  276
1924  322
1925  291
1926  306
1927  322
1928  305
1929  286
1930  315
1931  304
1932  315
1933  322
1934  354
1935  339
1936  341
1937  331
1938  336
1939  312
1940  316
1941  332
1942  337
1943  371
1944  369
1945  353
1946  359
1947  344
1948  327
1949  402
1950  354
1951  333
1952  342
1953  371
1954  342
1955  394
1956  340
1957  339
1958  337
1959  371
1960  384
1961  353
1962  399
1963  356
1964  369
1965  383
1966  360
1967  368
1968  371
1969  385
1970  363
1971  357
1972  371
1973  369
1974  374
1975  361
1976  398
1977  370
1978  360
1979  384
1980  384
1981  409
1982  379
1983  405
1984  388
1985  420
1986  365
1987  405
1988  404
1989  391
1990  401
1991  389
1992  391
1993  400
1994  364
1995  374
1996  402
1997  385
1998  370
1999  398
2000  405
2001  396
2002  401
2003  407
2004  351
2005  356
2006  400
2007  373
2008  416
2009  409
2010  420
2011  403
2012  407
2013  383
2014  412
2015  422
2016  342
2017  362
2018  391
2019  359
2020  403
2021  367
2022  358
2023  371
2024  393
2025  377
2026  411
2027  401
2028  365
2029  366
2030  379
2031  368
2032  390
2033  387
2034  406
2035  391
2036  376
2037  371
2038  372
2039  392
2040  399
2041  373
2042  395
2043  403
2044  372
2045  345
2046  371
2047  387
2048  331
2049  417
2050  369
2051  392
2052  391
2053  356
2054  350
2055  366
2056  354
2057  367
2058  398
2059  381
2060  323
2061  371
2062  339
2063  345
2064  363
2065  335
2066  396
2067  367
2068  366
2069  359
2070  336
2071  375
2072  339
2073  339
2074  363
2075  362
2076  374
2077  359
2078  340
2079  386
2080  354
2081  340
2082  345
2083  359
2084  326
2085  343
2086  326
2087  345
2088  327
2089  296
2090  293
2091  340
2092  300
2093  302
2094  326
2095  350
2096  302
2097  276
2098  313
2099  321
2100  305
2101  271
2102  331
2103  309
2104  318
2105  328
2106  336
2107  293
2108  341
2109  301
2110  311
2111  275
2112  305
2113  306
2114  312
2115  293
2116  298
2117  283
2118  293
2119  309
2120  295
2121  297
2122  299
2123  271
2124  318
2125  272
2126  266
2127  271
2128  290
2129  262
2130  261
2131  276
2132  261
2133  287
2134  258
2135  240
2136  259
2137  283
2138  284
2139  261
2140  233
2141  236
2142  266
2143  258
2144  260
2145  239
2146  290
2147  263
2148  248
2149  245
2150  270
2151  253
2152  234
2153  206
2154  249
2155  241
2156  244
2157  255
2158  248
2159  241
2160  227
2161  223
2162  246
2163  189
2164  245
2165  221
2166  205
2167  231
2168  243
2169  220
2170  215
2171  225
2172  229
2173  208
2174  215
2175  211
2176  225
2177  237
2178  205
2179  218
2180  234
2181  185
2182  206
2183  204
2184  225
2185  195
2186  227
2187  218
2188  203
2189  209
2190  207
2191  199
2192  201
2193  157
2194  180
2195  190
2196  246
2197  192
2198  213
2199  176
2200  190
2201  205
2202  183
2203  172
2204  183
2205  171
2206  195
2207  175
2208  166
2209  184
2210  176
2211  164
2212  175
2213  178
2214  154
2215  166
2216  163
2217  188
2218  159
2219  183
2220  168
2221  144
2222  179
2223  162
2224  145
2225  174
2226  144
2227  148
2228  167
2229  167
2230  157
2231  161
2232  153
2233  137
2234  140
2235  144
2236  174
2237  121
2238  146
2239  131
2240  156
2241  134
2242  143
2243  131
2244  131
2245  153
2246  137
2247  162
2248  143
2249  155
2250  142
2251  140
2252  144
2253  129
2254  150
2255  139
2256  126
2257  148
2258  127
2259  137
2260  116
2261  145
2262  125
2263  140
2264  130
2265  140
2266  130
2267  113
2268  121
2269  125
2270  108
2271  123
2272  118
2273  105
2274  130
2275  106
2276  126
2277  143
2278  141
2279  125
2280  128
2281  123
2282  102
2283  106
2284  115
2285  108
2286  109
2287  104
2288  126
2289  111
2290  122
2291  124
2292  96
2293  116
2294  108
2295  127
2296  112
2297  106
2298  119
2299  97
2300  117
2301  118
2302  101
2303  110
2304  102
2305  98
2306  95
2307  105
2308  98
2309  109
2310  94
2311  98
2312  96
2313  101
2314  88
2315  95
2316  98
2317  101
2318  84
2319  87
2320  98
2321  85
2322  94
2323  87
2324  90
2325  110
2326  79
2327  84
2328  96
2329  83
2330  104
2331  83
2332  92
2333  70
2334  90
2335  99
2336  98
2337  82
2338  93
2339  86
2340  100
2341  88
2342  97
2343  71
2344  97
2345  85
2346  80
2347  82
2348  83
2349  78
2350  74
2351  82
2352  94
2353  76
2354  86
2355  69
2356  76
2357  93
2358  74
2359  82
2360  57
2361  91
2362  66
2363  81
2364  75
2365  59
2366  74
2367  66
2368  67
2369  64
2370  70
2371  66
2372  77
2373  68
2374  62
2375  80
2376  65
2377  73
2378  82
2379  69
2380  66
2381  78
2382  66
2383  69
2384  73
2385  60
2386  71
2387  47
2388  75
2389  56
2390  65
2391  58
2392  53
2393  64
2394  72
2395  58
2396  57
2397  55
2398  82
2399  66
2400  61
2401  61
2402  60
2403  67
2404  64
2405  59
2406  57
2407  52
2408  62
2409  52
2410  35
2411  62
2412  70
2413  59
2414  45
2415  49
2416  53
2417  60
2418  56
2419  54
2420  64
2421  53
2422  41
2423  54
2424  46
2425  47
2426  60
2427  50
2428  56
2429  56
2430  48
2431  60
2432  46
2433  49
2434  44
2435  55
2436  48
2437  60
2438  49
2439  46
2440  59
2441  51
2442  41
2443  43
2444  46
2445  37
2446  49
2447  42
2448  40
2449  52
2450  32
2451  44
2452  39
2453  55
2454  43
2455  49
2456  53
2457  47
2458  44
2459  33
2460  37
2461  44
2462  39
2463  49
2464  43
2465  34
2466  42
2467  35
2468  44
2469  41
2470  38
2471  26
2472  45
2473  61
2474  37
2475  42
2476  36
2477  35
2478  47
2479  57
2480  33
2481  44
2482  35
2483  44
2484  34
2485  38
2486  36
2487  45
2488  39
2489  25
2490  37
2491  39
2492  33
2493  35
2494  34
2495  41
2496  32
2497  33
2498  42
2499  41
2500  35
2501  25
2502  25
2503  27
2504  35
2505  32
2506  28
2507  32
2508  30
2509  34
2510  33
2511  34
2512  33
2513  27
2514  36
2515  35
2516  34
2517  39
2518  33
2519  37
2520  34
2521  33
2522  23
2523  26
2524  37
2525  36
2526  32
2527  39
2528  31
2529  28
2530  30
2531  30
2532  29
2533  27
2534  27
2535  33
2536  23
2537  30
2538  32
2539  38
2540  33
2541  23
2542  35
2543  27
2544  25
2545  21
2546  21
2547  27
2548  26
2549  23
2550  29
2551  26
2552  29
2553  25
2554  25
2555  33
2556  21
2557  24
2558  34
2559  30
2560  22
2561  28
2562  29
2563  29
2564  31
2565  25
2566  28
2567  31
2568  21
2569  29
2570  25
2571  21
2572  26
2573  20
2574  32
2575  32
2576  15
2577  22
2578  18
2579  19
2580  25
2581  18
2582  20
2583  20
2584  20
2585  25
2586  19
2587  20
2588  18
2589  14
2590  32
2591  18
2592  21
2593  23
2594  26
2595  15
2596  23
2597  19
2598  37
2599  18
2600  22
2601  19
2602  24
2603  20
2604  25
2605  23
2606  21
2607  31
2608  17
2609  26
2610  25
2611  21
2612  12
2613  25
2614  21
2615  24
2616  23
2617  24
2618  15
2619  20
2620  18
2621  27
2622  25
2623  21
2624  28
2625  19
2626  17
2627  16
2628  17
2629  20
2630  18
2631  14
2632  15
2633  20
2634  22
2635  18
2636  15
2637  16
2638  19
2639  15
2640  26
2641  26
2642  19
2643  18
2644  20
2645  10
2646  27
2647  22
2648  18
2649  17
2650  11
2651  19
2652  18
2653  17
2654  13
2655  19
2656  22
2657  16
2658  17
2659  24
2660  17
2661  10
2662  17
2663  13
2664  29
2665  18
2666  24
2667  21
2668  15
2669  18
2670  16
2671  17
2672  20
2673  18
2674  10
2675  19
2676  18
2677  20
2678  23
2679  17
2680  12
2681  19
2682  15
2683  20
2684  20
2685  11
2686  17
2687  15
2688  13
2689  9
2690  11
2691  17
2692  15
2693  14
2694  12
2695  17
2696  12
2697  15
2698  6
2699  14
2700  14
2701  13
2702  14
2703  9
2704  14
2705  17
2706  20
2707  14
2708  10
2709  23
2710  18
2711  15
2712  14
2713  16
2714  14
2715  18
2716  15
2717  19
2718  15
2719  11
2720  13
2721  14
2722  11
2723  15
2724  14
2725  8
2726  9
2727  13
2728  14
2729  12
2730  15
2731  12
2732  8
2733  15
2734  9
2735  13
2736  10
2737  16
2738  22
2739  12
2740  14
2741  17
2742  8
2743  15
2744  15
2745  13
2746  12
2747  14
2748  17
2749  17
2750  7
2751  21
2752  7
2753  13
2754  8
2755  18
2756  10
2757  9
2758  12
2759  15
2760  9
2761  13
2762  17
2763  24
2764  10
2765  9
2766  7
2767  10
2768  11
2769  8
2770  10
2771  12
2772  15
2773  14
2774  14
2775  4
2776  16
2777  13
2778  13
2779  10
2780  13
2781  8
2782  19
2783  15
2784  9
2785  12
2786  17
2787  10
2788  11
2789  4
2790  10
2791  15
2792  10
2793  9
2794  14
2795  10
2796  5
2797  10
2798  12
2799  14
2800  11
2801  10
2802  20
2803  13
2804  11
2805  12
2806  8
2807  7
2808  9
2809  7
2810  6
2811  13
2812  7
2813  8
2814  16
2815  19
2816  12
2817  14
2818  9
2819  9
2820  10
2821  13
2822  10
2823  6
2824  13
2825  8
2826  15
2827  10
2828  12
2829  10
2830  13
2831  8
2832  9
2833  8
2834  16
2835  13
2836  9
2837  9
2838  9
2839  12
2840  4
2841  10
2842  2
2843  11
2844  12
2845  4
2846  2
2847  12
2848  15
2849  10
2850  10
2851  8
2852  4
2853  6
2854  12
2855  11
2856  7
2857  8
2858  9
2859  11
2860  8
2861  8
2862  6
2863  7
2864  2
2865  10
2866  14
2867  10
2868  12
2869  10
2870  8
2871  7
2872  3
2873  15
2874  10
2875  0
2876  16
2877  12
2878  13
2879  7
2880  7
2881  6
2882  7
2883  13
2884  7
2885  10
2886  5
2887  7
2888  8
2889  5
2890  5
2891  11
2892  7
2893  5
2894  9
2895  6
2896  11
2897  4
2898  6
2899  13
2900  9
2901  11
2902  6
2903  7
2904  7
2905  10
2906  12
2907  6
2908  7
2909  4
2910  11
2911  9
2912  7
2913  7
2914  12
2915  8
2916  8
2917  7
2918  8
2919  8
2920  5
2921  5
2922  8
2923  7
2924  8
2925  3
2926  9
2927  7
2928  4
2929  5
2930  9
2931  8
2932  12
2933  2
2934  12
2935  11
2936  5
2937  8
2938  7
2939  8
2940  8
2941  7
2942  11
2943  5
2944  6
2945  3
2946  10
2947  8
2948  9
2949  11
2950  10
2951  1
2952  7
2953  5
2954  10
2955  5
2956  1
2957  7
2958  4
2959  8
2960  13
2961  10
2962  8
2963  5
2964  4
2965  6
2966  7
2967  8
2968  5
2969  11
2970  5
2971  6
2972  6
2973  4
2974  10
2975  6
2976  6
2977  8
2978  6
2979  4
2980  11
2981  3
2982  10
2983  9
2984  7
2985  5
2986  9
2987  11
2988  6
2989  7
2990  4
2991  5
2992  13
2993  6
2994  7
2995  15
2996  5
2997  8
2998  11
2999  9
3000  4
3001  9
3002  9
3003  9
3004  5
3005  11
3006  5
3007  6
3008  2
3009  9
3010  8
3011  8
3012  6
3013  10
3014  3
3015  7
3016  7
3017  3
3018  12
3019  3
3020  11
3021  7
3022  9
3023  8
3024  7
3025  4
3026  7
3027  6
3028  3
3029  7
3030  7
3031  6
3032  2
3033  4
3034  3
3035  8
3036  5
3037  8
3038  5
3039  4
3040  7
3041  5
3042  4
3043  10
3044  6
3045  3
3046  7
3047  10
3048  8
3049  5
3050  9
3051  3
3052  8
3053  7
3054  7
3055  11
3056  5
3057  2
3058  3
3059  7
3060  6
3061  6
3062  5
3063  9
3064  9
3065  9
3066  13
3067  7
3068  8
3069  0
3070  5
3071  12
3072  9
3073  2
3074  6
3075  3
3076  3
3077  7
3078  6
3079  11
3080  9
3081  4
3082  4
3083  3
3084  4
3085  2
3086  8
3087  7
3088  4
3089  5
3090  4
3091  7
3092  5
3093  7
3094  5
3095  7
3096  6
3097  4
3098  6
3099  7
3100  6
3101  7
3102  2
3103  5
3104  5
3105  6
3106  3
3107  6
3108  4
3109  9
3110  5
3111  3
3112  5
3113  5
3114  4
3115  4
3116  3
3117  5
3118  4
3119  4
3120  6
3121  1
3122  4
3123  4
3124  4
3125  7
3126  3
3127  3
3128  2
3129  7
3130  4
3131  4
3132  4
3133  8
3134  4
3135  4
3136  4
3137  5
3138  3
3139  14
3140  3
3141  6
3142  5
3143  8
3144  7
3145  7
3146  3
3147  7
3148  4
3149  5
3150  10
3151  7
3152  6
3153  4
3154  8
3155  4
3156  10
3157  4
3158  5
3159  6
3160  4
3161  5
3162  3
3163  6
3164  8
3165  2
3166  3
3167  3
3168  5
3169  5
3170  5
3171  3
3172  7
3173  6
3174  5
3175  2
3176  2
3177  4
3178  4
3179  2
3180  5
3181  1
3182  3
3183  4
3184  11
3185  7
3186  3
3187  3
3188  8
3189  5
3190  6
3191  6
3192  3
3193  2
3194  4
3195  5
3196  3
3197  4
3198  5
3199  4
3200  5
3201  6
3202  2
3203  4
3204  2
3205  4
3206  4
3207  6
3208  8
3209  5
3210  5
3211  9
3212  2
3213  1
3214  3
3215  8
3216  4
3217  6
3218  3
3219  4
3220  4
3221  7
3222  2
3223  5
3224  6
3225  3
3226  2
3227  1
3228  2
3229  8
3230  6
3231  5
3232  6
3233  3
3234  3
3235  6
3236  6
3237  7
3238  2
3239  2
3240  5
3241  3
3242  6
3243  11
3244  2
3245  6
3246  2
3247  6
3248  2
3249  3
3250  5
3251  7
3252  5
3253  4
3254  9
3255  3
3256  1
3257  4
3258  5
3259  6
3260  4
3261  7
3262  6
3263  0
3264  5
3265  4
3266  8
3267  6
3268  1
3269  5
3270  5
3271  4
3272  6
3273  2
3274  5
3275  6
3276  3
3277  1
3278  2
3279  4
3280  3
3281  6
3282  2
3283  1
3284  2
3285  4
3286  2
3287  3
3288  9
3289  5
3290  4
3291  6
3292  7
3293  5
3294  2
3295  4
3296  4
3297  5
3298  5
3299  8
3300  2
3301  2
3302  2
3303  3
3304  5
3305  1
3306  1
3307  4
3308  6
3309  4
3310  8
3311  4
3312  2
3313  3
3314  2
3315  8
3316  2
3317  2
3318  3
3319  5
3320  6
3321  8
3322  5
3323  5
3324  4
3325  4
3326  5
3327  3
3328  3
3329  1
3330  5
3331  7
3332  2
3333  9
3334  3
3335  5
3336  1
3337  5
3338  6
3339  5
3340  5
3341  2
3342  1
3343  7
3344  2
3345  1
3346  5
3347  4
3348  3
3349  1
3350  4
3351  1
3352  5
3353  3
3354  1
3355  8
3356  3
3357  4
3358  2
3359  4
3360  8
3361  1
3362  3
3363  2
3364  2
3365  3
3366  1
3367  4
3368  2
3369  7
3370  0
3371  2
3372  3
3373  3
3374  1
3375  4
3376  5
3377  3
3378  2
3379  0
3380  2
3381  3
3382  3
3383  3
3384  3
3385  3
3386  2
3387  6
3388  7
3389  3
3390  4
3391  5
3392  4
3393  0
3394  3
3395  5
3396  10
3397  1
3398  5
3399  2
3400  5
3401  3
3402  1
3403  3
3404  3
3405  2
3406  5
3407  2
3408  6
3409  0
3410  2
3411  4
3412  3
3413  3
3414  5
3415  2
3416  1
3417  1
3418  5
3419  4
3420  3
3421  6
3422  1
3423  5
3424  3
3425  6
3426  1
3427  1
3428  5
3429  3
3430  7
3431  2
3432  4
3433  2
3434  3
3435  3
3436  3
3437  2
3438  4
3439  3
3440  1
3441  4
3442  6
3443  0
3444  2
3445  1
3446  5
3447  5
3448  1
3449  6
3450  5
3451  2
3452  6
3453  2
3454  4
3455  3
3456  3
3457  2
3458  4
3459  4
3460  6
3461  0
3462  1
3463  6
3464  3
3465  1
3466  5
3467  1
3468  5
3469  1
3470  2
3471  4
3472  6
3473  5
3474  7
3475  2
3476  1
3477  6
3478  3
3479  3
3480  4
3481  5
3482  4
3483  4
3484  2
3485  6
3486  2
3487  3
3488  4
3489  4
3490  3
3491  4
3492  3
3493  0
3494  2
3495  2
3496  7
3497  3
3498  2
3499  0
3500  0
3501  3
3502  3
3503  3
3504  5
3505  1
3506  4
3507  4
3508  5
3509  1
3510  2
3511  3
3512  3
3513  5
3514  4
3515  2
3516  3
3517  1
3518  3
3519  4
3520  6
3521  4
3522  4
3523  5
3524  6
3525  1
3526  4
3527  2
3528  3
3529  1
3530  6
3531  3
3532  2
3533  2
3534  4
3535  5
3536  1
3537  2
3538  3
3539  3
3540  4
3541  3
3542  3
3543  2
3544  3
3545  2
3546  5
3547  2
3548  3
3549  0
3550  2
3551  4
3552  7
3553  4
3554  4
3555  8
3556  0
3557  6
3558  0
3559  2
3560  6
3561  0
3562  3
3563  1
3564  1
3565  5
3566  3
3567  1
3568  1
3569  3
3570  5
3571  3
3572  3
3573  4
3574  1
3575  3
3576  3
3577  2
3578  2
3579  1
3580  4
3581  4
3582  6
3583  4
3584  2
3585  0
3586  2
3587  2
3588  3
3589  2
3590  3
3591  3
3592  2
3593  1
3594  5
3595  1
3596  1
3597  4
3598  0
3599  2
3600  3
3601  2
3602  2
3603  3
3604  6
3605  2
3606  2
3607  2
3608  4
3609  6
3610  4
3611  2
3612  3
3613  4
3614  3
3615  2
3616  1
3617  2
3618  5
3619  1
3620  5
3621  1
3622  2
3623  7
3624  1
3625  3
3626  4
3627  3
3628  0
3629  0
3630  2
3631  2
3632  3
3633  2
3634  0
3635  2
3636  2
3637  3
3638  1
3639  4
3640  1
3641  4
3642  0
3643  3
3644  3
3645  0
3646  3
3647  1
3648  3
3649  1
3650  3
3651  4
3652  6
3653  6
3654  3
3655  3
3656  4
3657  2
3658  1
3659  2
3660  0
3661  4
3662  2
3663  3
3664  1
3665  0
3666  4
3667  1
3668  1
3669  2
3670  2
3671  3
3672  4
3673  3
3674  1
3675  6
3676  0
3677  3
3678  2
3679  2
3680  2
3681  2
3682  3
3683  1
3684  2
3685  2
3686  1
3687  4
3688  2
3689  4
3690  0
3691  3
3692  2
3693  3
3694  2
3695  3
3696  4
3697  0
3698  0
3699  2
3700  2
3701  3
3702  2
3703  2
3704  2
3705  2
3706  3
3707  2
3708  2
3709  1
3710  5
3711  2
3712  2
3713  2
3714  2
3715  0
3716  1
3717  2
3718  1
3719  4
3720  3
3721  2
3722  6
3723  3
3724  2
3725  2
3726  3
3727  0
3728  3
3729  3
3730  1
3731  1
3732  1
3733  1
3734  4
3735  3
3736  1
3737  1
3738  1
3739  2
3740  3
3741  3
3742  1
3743  4
3744  3
3745  1
3746  1
3747  2
3748  2
3749  5
3750  0
3751  1
3752  3
3753  3
3754  2
3755  3
3756  1
3757  2
3758  4
3759  3
3760  1
3761  4
3762  2
3763  0
3764  5
3765  1
3766  5
3767  2
3768  2
3769  1
3770  3
3771  2
3772  2
3773  3
3774  2
3775  4
3776  1
3777  4
3778  2
3779  2
3780  1
3781  1
3782  2
3783  1
3784  2
3785  0
3786  3
3787  4
3788  3
3789  2
3790  1
3791  2
3792  1
3793  2
3794  4
3795  1
3796  2
3797  6
3798  4
3799  0
3800  3
3801  2
3802  3
3803  6
3804  2
3805  2
3806  3
3807  2
3808  2
3809  0
3810  2
3811  1
3812  3
3813  2
3814  2
3815  0
3816  2
3817  7
3818  0
3819  1
3820  1
3821  1
3822  4
3823  2
3824  1
3825  1
3826  2
3827  4
3828  2
3829  5
3830  1
3831  0
3832  1
3833  4
3834  0
3835  2
3836  1
3837  0
3838  2
3839  3
3840  0
3841  0
3842  0
3843  0
3844  0
3845  0
3846  0
3847  0
3848  0
3849  0
3850  0
3851  0
3852  0
3853  0
3854  0
3855  0
3856  0
3857  0
3858  0
3859  0
3860  0
3861  0
3862  0
3863  0
3864  0
3865  0
3866  0
3867  0
3868  0
3869  0
3870  0
3871  0
3872  0
3873  0
3874  0
3875  0
3876  0
3877  0
3878  0
3879  0
3880  0
3881  0
3882  0
3883  0
3884  0
3885  0
3886  0
3887  0
3888  0
3889  0
3890  0
3891  0
3892  0
3893  0
3894  0
3895  0
3896  0
3897  0
3898  0
3899  0
3900  0
3901  0
3902  0
3903  0
3904  0
3905  0
3906  0
3907  0
3908  0
3909  0
3910  0
3911  0
3912  0
3913  0
3914  0
3915  0
3916  0
3917  0
3918  0
3919  0
3920  0
3921  0
3922  0
3923  0
3924  0
3925  0
3926  0
3927  0
3928  0
3929  0
3930  0
3931  0
3932  0
3933  0
3934  0
3935  0
3936  0
3937  0
3938  0
3939  0
3940  0
3941  0
3942  0
3943  0
3944  0
3945  0
3946  0
3947  0
3948  0
3949  0
3950  0
3951  0
3952  0
3953  0
3954  0
3955  0
3956  0
3957  0
3958  0
3959  0
3960  0
3961  0
3962  0
3963  0
3964  0
3965  0
3966  0
3967  0
3968  0
3969  0
3970  0
3971  0
3972  0
3973  0
3974  0
3975  0
3976  0
3977  0
3978  0
3979  0
3980  0
3981  0
3982  0
3983  0
3984  0
3985  0
3986  0
3987  0
3988  0
3989  0
3990  0
3991  0
3992  0
3993  0
3994  0
3995  0
3996  0
3997  0
3998  0
3999  0
4000  0
4001  0
4002  0
4003  0
4004  0
4005  0
4006  0
4007  0
4008  0
4009  0
4010  0
4011  0
4012  0
4013  0
4014  0
4015  0
4016  0
4017  0
4018  0
4019  0
4020  0
4021  0
4022  0
4023  0
4024  0
4025  0
4026  0
4027  0
4028  0
4029  0
4030  0
4031  0
4032  0
4033  0
4034  0
4035  0
4036  0
4037  0
4038  0
4039  0
4040  0
4041  0
4042  0
4043  0
4044  0
4045  0
4046  0
4047  0
4048  0
4049  0
4050  0
4051  0
4052  0
4053  0
4054  0
4055  0
4056  0
4057  0
4058  0
4059  0
4060  0
4061  0
4062  0
4063  0
4064  0
4065  0
4066  0
4067  0
4068  0
4069  0
4070  0
4071  0
4072  0
4073  0
4074  0
4075  0
4076  0
4077  0
4078  0
4079  0
4080  0
4081  0
4082  0
4083  0
4084  0
4085  0
4086  0
4087  0
4088  0
4089  0
4090  0
4091  0
4092  0
4093  0
4094  0
4095  0
