0  720
1  806
2  911
3  1104
4  1248
5  1515
6  1680
7  1889
8  2095
9  2203
10  2362
11  2392
12  2615
13  2663
14  2705
15  2644
16  2598
17  2575
18  2491
19  2410
20  2296
21  2082
22  1876
23  1705
24  1481
25  1379
26  1116
27  957
28  831
29  661
30  575
31  497
32  355
33  243
34  241
35  183
36  130
37  119
38  68
39  63
40  44
41  31
42  20
43  11
44  15
45  8
46  4
47  2
48  1
49  1
50  1
51  0
52  0
53  0
54  0
55  1
56  0
57  0
58  0
59  0
60  0
61  1
62  0
63  0
64  0
65  0
66  0
67  0
68  0
69  0
70  0
71  0
72  0
73  0
74  0
75  0
76  0
77  0
78  0
79  0
80  0
81  0
82  0
83  0
84  0
85  0
86  0
87  0
88  0
89  0
90  0
91  0
92  0
93  0
94  0
95  0
96  0
97  0
98  0
99  0
100  0
101  1
102  0
103  0
104  0
105  0
106  0
107  0
108  0
109  0
110  0
111  0
112  0
113  0
114  0
115  0
116  0
117  0
118  0
119  0
120  0
121  0
122  0
123  0
124  0
125  0
126  0
127  0
128  0
129  0
130  0
131  0
132  0
133  0
134  0
135  0
136  0
137  0
138  0
139  0
140  0
141  0
142  0
143  0
144  0
145  0
146  0
147  0
148  0
149  0
150  0
151  0
152  0
153  0
154  0
155  0
156  0
157  0
158  0
159  0
160  0
161  0
162  0
163  0
164  0
165  0
166  0
167  0
168  0
169  0
170  0
171  1
172  0
173  0
174  0
175  0
176  0
177  0
178  0
179  0
180  0
181  0
182  0
183  1
184  0
185  3
186  1
187  1
188  1
189  1
190  3
191  10
192  7
193  6
194  8
195  17
196  16
197  31
198  31
199  41
200  47
201  53
202  72
203  69
204  113
205  146
206  138
207  168
208  196
209  212
210  279
211  266
212  308
213  314
214  345
215  319
216  358
217  390
218  371
219  353
220  387
221  370
222  382
223  424
224  386
225  370
226  346
227  376
228  341
229  283
230  264
231  221
232  190
233  233
234  186
235  163
236  168
237  138
238  140
239  134
240  110
241  124
242  104
243  99
244  83
245  99
246  87
247  82
248  85
249  91
250  92
251  73
252  93
253  83
254  94
255  73
256  83
257  76
258  71
259  91
260  76
261  68
262  87
263  87
264  92
265  80
266  88
267  81
268  86
269  85
270  78
271  74
272  91
273  92
274  85
275  71
276  81
277  99
278  88
279  81
280  84
281  69
282  96
283  90
284  84
285  81
286  84
287  99
288  87
289  86
290  95
291  77
292  95
293  86
294  97
295  76
296  75
297  87
298  96
299  83
300  78
301  82
302  68
303  69
304  94
305  94
306  78
307  77
308  85
309  83
310  88
311  93
312  84
313  72
314  96
315  90
316  86
317  93
318  97
319  100
320  102
321  97
322  92
323  86
324  87
325  87
326  78
327  99
328  92
329  82
330  70
331  91
332  94
333  76
334  76
335  76
336  68
337  85
338  72
339  94
340  111
341  79
342  84
343  76
344  84
345  69
346  85
347  76
348  76
349  89
350  96
351  98
352  93
353  105
354  92
355  99
356  75
357  83
358  94
359  81
360  101
361  90
362  105
363  94
364  73
365  91
366  90
367  93
368  84
369  98
370  88
371  97
372  103
373  85
374  81
375  100
376  83
377  94
378  79
379  98
380  100
381  96
382  80
383  81
384  89
385  110
386  79
387  99
388  71
389  80
390  84
391  78
392  92
393  94
394  80
395  90
396  88
397  80
398  94
399  95
400  98
401  85
402  99
403  92
404  90
405  91
406  98
407  92
408  98
409  113
410  113
411  82
412  84
413  98
414  87
415  89
416  89
417  98
418  95
419  97
420  98
421  87
422  90
423  92
424  66
425  98
426  83
427  85
428  89
429  84
430  95
431  84
432  97
433  96
434  93
435  94
436  73
437  94
438  86
439  95
440  85
441  90
442  92
443  113
444  95
445  89
446  93
447  84
448  110
449  103
450  90
451  108
452  101
453  77
454  85
455  85
456  81
457  74
458  94
459  101
460  96
461  94
462  87
463  85
464  70
465  95
466  116
467  114
468  101
469  86
470  94
471  83
472  78
473  88
474  78
475  90
476  81
477  91
478  94
479  93
480  95
481  104
482  80
483  111
484  107
485  90
486  94
487  85
488  93
489  87
490  100
491  102
492  79
493  88
494  98
495  87
496  125
497  102
498  78
499  86
500  83
501  102
502  96
503  91
504  78
505  90
506  84
507  89
508  84
509  80
510  85
511  99
512  101
513  105
514  97
515  103
516  98
517  98
518  106
519  92
520  109
521  102
522  82
523  103
524  109
525  93
526  108
527  95
528  91
529  79
530  95
531  86
532  98
533  95
534  103
535  86
536  98
537  80
538  86
539  90
540  88
541  79
542  100
543  96
544  85
545  93
546  106
547  94
548  83
549  85
550  84
551  93
552  106
553  92
554  88
555  95
556  81
557  102
558  92
559  96
560  85
561  93
562  95
563  104
564  102
565  104
566  102
567  72
568  90
569  64
570  99
571  99
572  92
573  93
574  92
575  97
576  117
577  90
578  84
579  97
580  89
581  108
582  105
583  109
584  74
585  94
586  101
587  93
588  76
589  93
590  95
591  72
592  96
593  83
594  98
595  100
596  92
597  87
598  87
599  104
600  87
601  96
602  102
603  82
604  90
605  104
606  101
607  108
608  100
609  87
610  89
611  91
612  94
613  105
614  90
615  82
616  81
617  97
618  93
619  97
620  103
621  90
622  85
623  85
624  97
625  90
626  78
627  86
628  100
629  97
630  96
631  100
632  93
633  101
634  91
635  94
636  103
637  90
638  115
639  85
640  95
641  86
642  103
643  93
644  69
645  87
646  97
647  110
648  95
649  82
650  87
651  82
652  95
653  88
654  91
655  89
656  86
657  83
658  77
659  92
660  78
661  95
662  102
663  85
664  106
665  84
666  125
667  72
668  103
669  81
670  85
671  79
672  86
673  91
674  90
675  79
676  100
677  84
678  70
679  89
680  94
681  97
682  92
683  110
684  91
685  108
686  94
687  56
688  99
689  76
690  63
691  109
692  74
693  81
694  92
695  83
696  92
697  98
698  101
699  89
700  93
701  92
702  87
703  97
704  92
705  95
706  76
707  94
708  86
709  81
710  77
711  81
712  97
713  83
714  91
715  84
716  88
717  84
718  77
719  100
720  82
721  84
722  76
723  101
724  93
725  103
726  87
727  82
728  75
729  75
730  79
731  73
732  81
733  84
734  86
735  73
736  90
737  93
738  84
739  78
740  89
741  89
742  78
743  75
744  68
745  78
746  86
747  79
748  77
749  86
750  85
751  66
752  91
753  85
754  58
755  90
756  56
757  90
758  62
759  67
760  65
761  70
762  75
763  89
764  65
765  63
766  74
767  76
768  76
769  73
770  88
771  70
772  74
773  74
774  63
775  81
776  84
777  82
778  91
779  59
780  87
781  69
782  70
783  83
784  75
785  74
786  78
787  80
788  75
789  78
790  87
791  81
792  75
793  70
794  75
795  77
796  67
797  64
798  77
799  88
800  74
801  80
802  72
803  68
804  100
805  82
806  86
807  74
808  75
809  75
810  76
811  79
812  64
813  63
814  63
815  64
816  63
817  79
818  71
819  59
820  65
821  58
822  74
823  82
824  62
825  79
826  81
827  85
828  61
829  71
830  73
831  69
832  79
833  72
834  87
835  73
836  73
837  70
838  71
839  72
840  77
841  76
842  67
843  72
844  72
845  63
846  71
847  70
848  69
849  60
850  78
851  57
852  77
853  63
854  79
855  75
856  51
857  73
858  73
859  75
860  68
861  70
862  74
863  65
864  58
865  50
866  54
867  61
868  62
869  62
870  71
871  69
872  64
873  76
874  53
875  68
876  59
877  62
878  71
879  71
880  58
881  77
882  55
883  70
884  62
885  70
886  55
887  50
888  50
889  59
890  68
891  61
892  65
893  67
894  50
895  63
896  41
897  51
898  61
899  57
900  55
901  49
902  50
903  55
904  53
905  55
906  59
907  47
908  71
909  51
910  58
911  51
912  66
913  70
914  57
915  55
916  50
917  58
918  58
919  60
920  69
921  51
922  50
923  52
924  52
925  64
926  61
927  50
928  44
929  43
930  54
931  54
932  56
933  43
934  46
935  47
936  52
937  42
938  46
939  59
940  62
941  38
942  44
943  46
944  43
945  45
946  47
947  42
948  49
949  51
950  51
951  40
952  40
953  42
954  35
955  52
956  42
957  53
958  54
959  35
960  49
961  42
962  44
963  41
964  43
965  42
966  46
967  37
968  50
969  54
970  42
971  24
972  42
973  47
974  40
975  44
976  46
977  36
978  52
979  28
980  49
981  54
982  47
983  46
984  38
985  34
986  47
987  32
988  40
989  39
990  35
991  38
992  46
993  33
994  43
995  55
996  37
997  34
998  52
999  35
1000  37
1001  41
1002  41
1003  49
1004  36
1005  48
1006  33
1007  44
1008  43
1009  38
1010  42
1011  28
1012  33
1013  29
1014  42
1015  43
1016  41
1017  42
1018  44
1019  34
1020  34
1021  49
1022  33
1023  33
1024  44
1025  33
1026  38
1027  36
1028  32
1029  37
1030  33
1031  25
1032  41
1033  27
1034  29
1035  38
1036  31
1037  34
1038  50
1039  32
1040  37
1041  30
1042  42
1043  33
1044  34
1045  33
1046  33
1047  27
1048  32
1049  39
1050  39
1051  39
1052  43
1053  38
1054  41
1055  28
1056  40
1057  35
1058  32
1059  41
1060  42
1061  32
1062  31
1063  38
1064  41
1065  38
1066  45
1067  31
1068  36
1069  34
1070  31
1071  24
1072  36
1073  45
1074  36
1075  32
1076  34
1077  26
1078  41
1079  35
1080  39
1081  36
1082  35
1083  34
1084  48
1085  48
1086  39
1087  47
1088  18
1089  32
1090  47
1091  23
1092  26
1093  28
1094  26
1095  40
1096  40
1097  42
1098  26
1099  31
1100  27
1101  36
1102  35
1103  22
1104  33
1105  37
1106  38
1107  37
1108  40
1109  30
1110  27
1111  36
1112  33
1113  26
1114  40
1115  29
1116  41
1117  43
1118  28
1119  35
1120  29
1121  33
1122  40
1123  37
1124  23
1125  32
1126  31
1127  32
1128  47
1129  34
1130  41
1131  44
1132  34
1133  26
1134  36
1135  37
1136  34
1137  37
1138  34
1139  39
1140  38
1141  33
1142  37
1143  31
1144  28
1145  25
1146  32
1147  35
1148  33
1149  31
1150  30
1151  22
1152  25
1153  31
1154  31
1155  31
1156  25
1157  29
1158  24
1159  35
1160  29
1161  25
1162  37
1163  33
1164  25
1165  25
1166  28
1167  37
1168  34
1169  26
1170  33
1171  24
1172  27
1173  34
1174  27
1175  36
1176  27
1177  33
1178  29
1179  22
1180  26
1181  33
1182  24
1183  30
1184  28
1185  26
1186  36
1187  25
1188  30
1189  28
1190  33
1191  32
1192  27
1193  27
1194  32
1195  22
1196  21
1197  19
1198  27
1199  24
1200  36
1201  20
1202  28
1203  20
1204  19
1205  25
1206  28
1207  26
1208  29
1209  30
1210  30
1211  22
1212  26
1213  25
1214  25
1215  30
1216  31
1217  16
1218  27
1219  30
1220  29
1221  24
1222  23
1223  28
1224  23
1225  24
1226  24
1227  26
1228  37
1229  24
1230  29
1231  34
1232  27
1233  32
1234  28
1235  27
1236  24
1237  27
1238  31
1239  26
1240  16
1241  29
1242  32
1243  30
1244  33
1245  32
1246  29
1247  25
1248  30
1249  27
1250  25
1251  24
1252  31
1253  16
1254  22
1255  35
1256  22
1257  31
1258  27
1259  23
1260  23
1261  31
1262  27
1263  19
1264  29
1265  26
1266  29
1267  19
1268  32
1269  34
1270  27
1271  25
1272  27
1273  30
1274  26
1275  27
1276  28
1277  27
1278  25
1279  24
1280  22
1281  25
1282  36
1283  28
1284  36
1285  32
1286  31
1287  22
1288  25
1289  23
1290  33
1291  33
1292  20
1293  27
1294  26
1295  26
1296  34
1297  29
1298  33
1299  32
1300  30
1301  20
1302  28
1303  32
1304  26
1305  24
1306  25
1307  36
1308  20
1309  34
1310  27
1311  29
1312  28
1313  27
1314  27
1315  17
1316  29
1317  23
1318  29
1319  28
1320  28
1321  34
1322  26
1323  29
1324  26
1325  36
1326  29
1327  32
1328  36
1329  34
1330  29
1331  32
1332  28
1333  32
1334  28
1335  25
1336  21
1337  29
1338  28
1339  40
1340  30
1341  29
1342  27
1343  32
1344  31
1345  31
1346  28
1347  25
1348  24
1349  31
1350  32
1351  28
1352  32
1353  26
1354  35
1355  35
1356  34
1357  24
1358  27
1359  21
1360  38
1361  37
1362  27
1363  25
1364  37
1365  35
1366  28
1367  42
1368  23
1369  33
1370  37
1371  24
1372  32
1373  28
1374  37
1375  40
1376  32
1377  27
1378  31
1379  30
1380  25
1381  36
1382  30
1383  36
1384  33
1385  16
1386  32
1387  36
1388  30
1389  42
1390  39
1391  19
1392  28
1393  39
1394  39
1395  33
1396  34
1397  33
1398  33
1399  36
1400  29
1401  37
1402  27
1403  26
1404  34
1405  33
1406  22
1407  34
1408  31
1409  35
1410  23
1411  21
1412  29
1413  32
1414  23
1415  30
1416  26
1417  41
1418  28
1419  29
1420  39
1421  28
1422  42
1423  32
1424  32
1425  21
1426  25
1427  54
1428  38
1429  31
1430  36
1431  34
1432  50
1433  41
1434  24
1435  28
1436  26
1437  29
1438  32
1439  30
1440  33
1441  32
1442  45
1443  40
1444  32
1445  27
1446  36
1447  33
1448  22
1449  35
1450  31
1451  27
1452  32
1453  31
1454  30
1455  28
1456  37
1457  36
1458  30
1459  31
1460  42
1461  37
1462  20
1463  33
1464  35
1465  31
1466  32
1467  36
1468  43
1469  35
1470  36
1471  28
1472  29
1473  28
1474  37
1475  35
1476  37
1477  27
1478  37
1479  26
1480  37
1481  43
1482  35
1483  30
1484  39
1485  32
1486  34
1487  29
1488  43
1489  35
1490  44
1491  28
1492  39
1493  38
1494  24
1495  36
1496  35
1497  40
1498  37
1499  33
1500  35
1501  38
1502  39
1503  32
1504  35
1505  30
1506  34
1507  45
1508  33
1509  38
1510  30
1511  28
1512  46
1513  42
1514  33
1515  40
1516  37
1517  44
1518  40
1519  46
1520  41
1521  35
1522  35
1523  33
1524  29
1525  33
1526  35
1527  40
1528  37
1529  49
1530  34
1531  39
1532  35
1533  30
1534  43
1535  38
1536  34
1537  42
1538  36
1539  31
1540  38
1541  43
1542  39
1543  44
1544  37
1545  40
1546  46
1547  30
1548  41
1549  49
1550  49
1551  40
1552  41
1553  38
1554  45
1555  37
1556  52
1557  41
1558  40
1559  49
1560  49
1561  50
1562  38
1563  50
1564  41
1565  37
1566  49
1567  40
1568  38
1569  42
1570  35
1571  48
1572  36
1573  41
1574  43
1575  39
1576  48
1577  41
1578  53
1579  44
1580  42
1581  53
1582  38
1583  60
1584  32
1585  49
1586  37
1587  52
1588  43
1589  43
1590  49
1591  45
1592  45
1593  48
1594  46
1595  47
1596  40
1597  44
1598  48
1599  50
1600  47
1601  55
1602  46
1603  45
1604  53
1605  51
1606  58
1607  40
1608  43
1609  51
1610  51
1611  46
1612  54
1613  54
1614  53
1615  46
1616  64
1617  52
1618  53
1619  63
1620  42
1621  43
1622  58
1623  59
1624  49
1625  46
1626  51
1627  57
1628  64
1629  55
1630  54
1631  60
1632  60
1633  60
1634  58
1635  66
1636  57
1637  84
1638  64
1639  67
1640  72
1641  90
1642  71
1643  86
1644  85
1645  92
1646  109
1647  123
1648  164
1649  144
1650  199
1651  229
1652  279
1653  335
1654  395
1655  505
1656  626
1657  668
1658  805
1659  958
1660  1152
1661  1268
1662  1504
1663  1697
1664  1927
1665  2162
1666  2396
1667  2669
1668  2932
1669  3206
1670  3499
1671  3590
1672  3973
1673  4046
1674  4109
1675  4366
1676  4424
1677  4364
1678  4400
1679  4245
1680  4363
1681  4276
1682  4074
1683  3978
1684  3740
1685  3609
1686  3429
1687  3196
1688  3016
1689  2760
1690  2590
1691  2391
1692  2205
1693  2011
1694  1808
1695  1679
1696  1594
1697  1450
1698  1310
1699  1245
1700  1139
1701  1036
1702  941
1703  922
1704  837
1705  744
1706  773
1707  656
1708  659
1709  584
1710  541
1711  515
1712  459
1713  438
1714  393
1715  379
1716  346
1717  341
1718  301
1719  289
1720  298
1721  254
1722  233
1723  232
1724  196
1725  189
1726  177
1727  156
1728  136
1729  144
1730  124
1731  95
1732  133
1733  114
1734  93
1735  101
1736  97
1737  97
1738  71
1739  79
1740  87
1741  72
1742  67
1743  80
1744  77
1745  77
1746  69
1747  67
1748  78
1749  57
1750  76
1751  43
1752  54
1753  53
1754  58
1755  41
1756  73
1757  63
1758  61
1759  56
1760  50
1761  66
1762  46
1763  58
1764  40
1765  71
1766  75
1767  65
1768  64
1769  51
1770  57
1771  60
1772  55
1773  49
1774  57
1775  58
1776  61
1777  49
1778  65
1779  48
1780  53
1781  62
1782  63
1783  57
1784  64
1785  59
1786  53
1787  59
1788  58
1789  69
1790  72
1791  59
1792  49
1793  56
1794  62
1795  49
1796  64
1797  60
1798  59
1799  62
1800  65
1801  62
1802  62
1803  43
1804  55
1805  65
1806  48
1807  62
1808  59
1809  58
1810  57
1811  66
1812  62
1813  52
1814  58
1815  60
1816  59
1817  45
1818  47
1819  49
1820  67
1821  58
1822  54
1823  57
1824  70
1825  60
1826  82
1827  55
1828  60
1829  54
1830  65
1831  58
1832  68
1833  58
1834  49
1835  72
1836  53
1837  68
1838  60
1839  73
1840  69
1841  64
1842  68
1843  45
1844  66
1845  78
1846  74
1847  68
1848  58
1849  58
1850  67
1851  77
1852  61
1853  69
1854  66
1855  74
1856  48
1857  50
1858  72
1859  65
1860  66
1861  76
1862  64
1863  56
1864  79
1865  70
1866  74
1867  68
1868  58
1869  57
1870  77
1871  66
1872  48
1873  73
1874  61
1875  75
1876  77
1877  62
1878  63
1879  74
1880  66
1881  77
1882  63
1883  61
1884  61
1885  69
1886  56
1887  65
1888  71
1889  71
1890  69
1891  66
1892  72
1893  61
1894  69
1895  63
1896  77
1897  64
1898  66
1899  70
1900  61
1901  85
1902  71
1903  59
1904  72
1905  70
1906  69
1907  77
1908  57
1909  59
1910  76
1911  75
1912  73
1913  71
1914  57
1915  73
1916  51
1917  72
1918  73
1919  69
1920  64
1921  62
1922  85
1923  75
1924  69
1925  67
1926  63
1927  74
1928  95
1929  72
1930  64
1931  69
1932  57
1933  70
1934  72
1935  68
1936  78
1937  91
1938  72
1939  82
1940  71
1941  67
1942  66
1943  70
1944  59
1945  81
1946  71
1947  77
1948  70
1949  75
1950  91
1951  75
1952  67
1953  79
1954  66
1955  87
1956  84
1957  62
1958  69
1959  58
1960  70
1961  95
1962  58
1963  62
1964  72
1965  76
1966  79
1967  85
1968  91
1969  84
1970  77
1971  71
1972  83
1973  72
1974  90
1975  63
1976  65
1977  74
1978  68
1979  64
1980  64
1981  64
1982  76
1983  72
1984  87
1985  68
1986  83
1987  79
1988  66
1989  69
1990  79
1991  81
1992  80
1993  88
1994  77
1995  84
1996  75
1997  68
1998  74
1999  66
2000  69
2001  76
2002  71
2003  77
2004  94
2005  78
2006  79
2007  71
2008  87
2009  87
2010  80
2011  77
2012  75
2013  75
2014  77
2015  79
2016  88
2017  62
2018  78
2019  93
2020  73
2021  70
2022  71
2023  79
2024  80
2025  74
2026  57
2027  58
2028  95
2029  69
2030  82
2031  68
2032  74
2033  90
2034  68
2035  85
2036  78
2037  74
2038  98
2039  73
2040  96
2041  77
2042  71
2043  85
2044  77
2045  88
2046  71
2047  80
2048  86
2049  74
2050  76
2051  84
2052  86
2053  77
2054  85
2055  78
2056  68
2057  94
2058  79
2059  87
2060  75
2061  94
2062  91
2063  76
2064  86
2065  86
2066  89
2067  81
2068  77
2069  73
2070  83
2071  66
2072  83
2073  76
2074  106
2075  77
2076  69
2077  77
2078  64
2079  82
2080  81
2081  81
2082  57
2083  77
2084  93
2085  90
2086  72
2087  72
2088  96
2089  84
2090  89
2091  69
2092  81
2093  82
2094  57
2095  71
2096  72
2097  68
2098  83
2099  70
2100  90
2101  84
2102  87
2103  83
2104  81
2105  81
2106  74
2107  85
2108  73
2109  71
2110  70
2111  93
2112  85
2113  83
2114  79
2115  89
2116  82
2117  99
2118  65
2119  80
2120  77
2121  84
2122  88
2123  79
2124  85
2125  85
2126  77
2127  83
2128  81
2129  94
2130  74
2131  90
2132  70
2133  77
2134  88
2135  70
2136  87
2137  82
2138  64
2139  70
2140  60
2141  85
2142  91
2143  77
2144  73
2145  80
2146  80
2147  94
2148  65
2149  71
2150  88
2151  80
2152  78
2153  79
2154  86
2155  84
2156  94
2157  91
2158  86
2159  85
2160  82
2161  69
2162  79
2163  85
2164  75
2165  83
2166  100
2167  83
2168  88
2169  84
2170  75
2171  77
2172  71
2173  78
2174  78
2175  87
2176  90
2177  69
2178  91
2179  88
2180  85
2181  90
2182  81
2183  90
2184  89
2185  76
2186  87
2187  84
2188  91
2189  94
2190  76
2191  76
2192  75
2193  66
2194  76
2195  63
2196  84
2197  78
2198  99
2199  96
2200  81
2201  76
2202  104
2203  89
2204  89
2205  83
2206  84
2207  70
2208  104
2209  89
2210  76
2211  107
2212  86
2213  77
2214  80
2215  93
2216  110
2217  96
2218  72
2219  88
2220  102
2221  86
2222  82
2223  81
2224  84
2225  88
2226  82
2227  91
2228  88
2229  82
2230  101
2231  90
2232  99
2233  88
2234  97
2235  96
2236  78
2237  93
2238  91
2239  94
2240  70
2241  95
2242  85
2243  96
2244  97
2245  73
2246  75
2247  85
2248  85
2249  82
2250  93
2251  89
2252  83
2253  78
2254  78
2255  82
2256  93
2257  95
2258  77
2259  88
2260  104
2261  104
2262  106
2263  81
2264  101
2265  93
2266  93
2267  94
2268  98
2269  96
2270  83
2271  85
2272  110
2273  104
2274  85
2275  64
2276  100
2277  85
2278  86
2279  95
2280  85
2281  91
2282  89
2283  87
2284  89
2285  80
2286  90
2287  81
2288  101
2289  92
2290  98
2291  103
2292  89
2293  86
2294  87
2295  76
2296  81
2297  91
2298  71
2299  96
2300  93
2301  93
2302  97
2303  88
2304  79
2305  87
2306  75
2307  95
2308  80
2309  100
2310  91
2311  86
2312  90
2313  108
2314  91
2315  93
2316  100
2317  95
2318  72
2319  79
2320  81
2321  85
2322  86
2323  84
2324  100
2325  91
2326  85
2327  86
2328  96
2329  97
2330  97
2331  75
2332  103
2333  86
2334  100
2335  84
2336  101
2337  89
2338  89
2339  85
2340  83
2341  90
2342  90
2343  107
2344  75
2345  111
2346  100
2347  92
2348  102
2349  98
2350  88
2351  84
2352  83
2353  83
2354  101
2355  78
2356  94
2357  110
2358  96
2359  82
2360  88
2361  87
2362  86
2363  98
2364  81
2365  89
2366  107
2367  104
2368  90
2369  88
2370  93
2371  102
2372  90
2373  105
2374  90
2375  83
2376  95
2377  98
2378  99
2379  81
2380  107
2381  96
2382  102
2383  90
2384  96
2385  92
2386  99
2387  82
2388  97
2389  123
2390  116
2391  97
2392  80
2393  95
2394  87
2395  90
2396  87
2397  104
2398  95
2399  82
2400  115
2401  93
2402  89
2403  92
2404  98
2405  98
2406  101
2407  108
2408  83
2409  93
2410  107
2411  100
2412  97
2413  100
2414  98
2415  100
2416  101
2417  106
2418  99
2419  101
2420  98
2421  91
2422  104
2423  94
2424  85
2425  111
2426  89
2427  95
2428  86
2429  107
2430  89
2431  106
2432  94
2433  85
2434  99
2435  85
2436  104
2437  106
2438  106
2439  101
2440  94
2441  86
2442  87
2443  86
2444  92
2445  102
2446  97
2447  94
2448  84
2449  86
2450  87
2451  91
2452  99
2453  103
2454  124
2455  93
2456  96
2457  97
2458  84
2459  79
2460  82
2461  104
2462  100
2463  89
2464  78
2465  85
2466  93
2467  86
2468  83
2469  102
2470  99
2471  93
2472  83
2473  79
2474  72
2475  83
2476  88
2477  94
2478  95
2479  96
2480  86
2481  102
2482  98
2483  86
2484  97
2485  105
2486  87
2487  89
2488  93
2489  77
2490  103
2491  90
2492  90
2493  107
2494  101
2495  82
2496  94
2497  86
2498  109
2499  99
2500  99
2501  83
2502  78
2503  83
2504  93
2505  106
2506  102
2507  88
2508  85
2509  98
2510  105
2511  101
2512  95
2513  76
2514  82
2515  79
2516  96
2517  96
2518  106
2519  98
2520  90
2521  77
2522  88
2523  87
2524  98
2525  91
2526  75
2527  84
2528  103
2529  89
2530  91
2531  113
2532  92
2533  93
2534  94
2535  99
2536  94
2537  90
2538  93
2539  97
2540  88
2541  85
2542  92
2543  91
2544  85
2545  92
2546  89
2547  90
2548  102
2549  94
2550  102
2551  83
2552  85
2553  104
2554  97
2555  99
2556  89
2557  91
2558  84
2559  91
2560  85
2561  89
2562  108
2563  81
2564  115
2565  98
2566  103
2567  96
2568  71
2569  87
2570  99
2571  90
2572  74
2573  89
2574  73
2575  89
2576  86
2577  103
2578  85
2579  87
2580  84
2581  83
2582  76
2583  87
2584  71
2585  80
2586  80
2587  81
2588  73
2589  92
2590  84
2591  91
2592  92
2593  78
2594  95
2595  86
2596  102
2597  87
2598  77
2599  94
2600  86
2601  90
2602  101
2603  80
2604  75
2605  82
2606  86
2607  90
2608  79
2609  84
2610  101
2611  81
2612  92
2613  79
2614  80
2615  78
2616  86
2617  87
2618  79
2619  85
2620  73
2621  82
2622  72
2623  102
2624  98
2625  71
2626  72
2627  80
2628  77
2629  66
2630  82
2631  87
2632  81
2633  82
2634  76
2635  81
2636  71
2637  84
2638  87
2639  77
2640  74
2641  80
2642  76
2643  83
2644  87
2645  94
2646  87
2647  66
2648  76
2649  96
2650  92
2651  84
2652  73
2653  65
2654  85
2655  67
2656  67
2657  86
2658  72
2659  67
2660  70
2661  75
2662  78
2663  73
2664  76
2665  86
2666  76
2667  79
2668  69
2669  81
2670  82
2671  71
2672  67
2673  83
2674  84
2675  88
2676  77
2677  89
2678  84
2679  76
2680  87
2681  70
2682  79
2683  81
2684  82
2685  88
2686  90
2687  50
2688  71
2689  73
2690  70
2691  77
2692  61
2693  68
2694  67
2695  65
2696  82
2697  82
2698  75
2699  69
2700  61
2701  80
2702  71
2703  66
2704  70
2705  71
2706  82
2707  66
2708  90
2709  70
2710  67
2711  83
2712  72
2713  57
2714  79
2715  70
2716  63
2717  67
2718  66
2719  76
2720  65
2721  68
2722  74
2723  75
2724  75
2725  76
2726  58
2727  62
2728  87
2729  66
2730  78
2731  60
2732  67
2733  67
2734  77
2735  72
2736  77
2737  82
2738  67
2739  71
2740  71
2741  65
2742  68
2743  67
2744  78
2745  60
2746  67
2747  64
2748  59
2749  62
2750  61
2751  70
2752  61
2753  76
2754  68
2755  57
2756  74
2757  74
2758  51
2759  69
2760  78
2761  56
2762  61
2763  58
2764  71
2765  61
2766  59
2767  64
2768  80
2769  61
2770  60
2771  54
2772  66
2773  62
2774  72
2775  51
2776  55
2777  47
2778  72
2779  66
2780  51
2781  54
2782  56
2783  60
2784  51
2785  58
2786  53
2787  59
2788  63
2789  65
2790  62
2791  59
2792  54
2793  63
2794  77
2795  47
2796  47
2797  54
2798  58
2799  59
2800  65
2801  52
2802  53
2803  57
2804  55
2805  46
2806  51
2807  48
2808  66
2809  54
2810  70
2811  48
2812  50
2813  50
2814  62
2815  38
2816  52
2817  52
2818  60
2819  54
2820  48
2821  43
2822  51
2823  46
2824  69
2825  46
2826  48
2827  46
2828  50
2829  61
2830  44
2831  62
2832  44
2833  42
2834  38
2835  53
2836  42
2837  52
2838  43
2839  39
2840  49
2841  40
2842  45
2843  42
2844  46
2845  40
2846  36
2847  42
2848  46
2849  43
2850  37
2851  55
2852  37
2853  52
2854  49
2855  45
2856  44
2857  39
2858  38
2859  48
2860  41
2861  58
2862  40
2863  37
2864  35
2865  35
2866  45
2867  44
2868  46
2869  49
2870  40
2871  37
2872  42
2873  39
2874  38
2875  42
2876  36
2877  34
2878  32
2879  40
2880  35
2881  40
2882  43
2883  36
2884  35
2885  30
2886  27
2887  41
2888  43
2889  33
2890  32
2891  37
2892  52
2893  51
2894  34
2895  41
2896  33
2897  44
2898  33
2899  33
2900  29
2901  35
2902  25
2903  39
2904  37
2905  31
2906  39
2907  36
2908  39
2909  27
2910  34
2911  37
2912  36
2913  39
2914  33
2915  51
2916  39
2917  38
2918  36
2919  34
2920  32
2921  47
2922  33
2923  30
2924  40
2925  33
2926  43
2927  33
2928  45
2929  33
2930  43
2931  33
2932  27
2933  32
2934  34
2935  32
2936  24
2937  38
2938  31
2939  37
2940  40
2941  44
2942  41
2943  32
2944  38
2945  28
2946  37
2947  40
2948  39
2949  29
2950  43
2951  38
2952  38
2953  42
2954  38
2955  32
2956  30
2957  43
2958  36
2959  28
2960  33
2961  30
2962  38
2963  29
2964  31
2965  33
2966  32
2967  40
2968  26
2969  43
2970  28
2971  32
2972  28
2973  33
2974  31
2975  37
2976  46
2977  39
2978  38
2979  38
2980  37
2981  36
2982  36
2983  45
2984  33
2985  37
2986  37
2987  31
2988  34
2989  48
2990  35
2991  33
2992  35
2993  37
2994  35
2995  31
2996  24
2997  37
2998  28
2999  28
3000  31
3001  29
3002  25
3003  50
3004  32
3005  37
3006  32
3007  43
3008  28
3009  35
3010  37
3011  39
3012  38
3013  40
3014  30
3015  34
3016  40
3017  45
3018  36
3019  33
3020  24
3021  34
3022  32
3023  34
3024  27
3025  30
3026  28
3027  36
3028  28
3029  28
3030  35
3031  36
3032  31
3033  44
3034  41
3035  31
3036  31
3037  38
3038  28
3039  33
3040  21
3041  31
3042  36
3043  31
3044  35
3045  44
3046  28
3047  34
3048  25
3049  30
3050  34
3051  32
3052  23
3053  25
3054  31
3055  29
3056  28
3057  32
3058  37
3059  20
3060  39
3061  29
3062  32
3063  30
3064  34
3065  37
3066  23
3067  21
3068  24
3069  25
3070  20
3071  29
3072  45
3073  39
3074  32
3075  27
3076  30
3077  27
3078  28
3079  29
3080  17
3081  36
3082  29
3083  21
3084  27
3085  24
3086  29
3087  23
3088  28
3089  18
3090  34
3091  27
3092  33
3093  26
3094  22
3095  31
3096  31
3097  31
3098  32
3099  22
3100  24
3101  37
3102  23
3103  34
3104  29
3105  25
3106  32
3107  31
3108  27
3109  26
3110  21
3111  22
3112  24
3113  42
3114  24
3115  22
3116  26
3117  18
3118  13
3119  25
3120  30
3121  26
3122  20
3123  32
3124  24
3125  28
3126  28
3127  18
3128  35
3129  17
3130  31
3131  17
3132  35
3133  26
3134  31
3135  28
3136  30
3137  26
3138  27
3139  21
3140  31
3141  21
3142  32
3143  28
3144  37
3145  39
3146  26
3147  19
3148  22
3149  32
3150  26
3151  31
3152  36
3153  24
3154  23
3155  27
3156  39
3157  24
3158  16
3159  13
3160  28
3161  29
3162  24
3163  23
3164  30
3165  24
3166  24
3167  33
3168  27
3169  36
3170  24
3171  24
3172  35
3173  32
3174  31
3175  26
3176  33
3177  27
3178  37
3179  17
3180  22
3181  22
3182  27
3183  24
3184  28
3185  30
3186  38
3187  31
3188  20
3189  29
3190  20
3191  31
3192  28
3193  26
3194  29
3195  20
3196  31
3197  26
3198  33
3199  33
3200  34
3201  30
3202  24
3203  28
3204  29
3205  23
3206  32
3207  32
3208  31
3209  33
3210  23
3211  26
3212  29
3213  19
3214  26
3215  24
3216  24
3217  21
3218  23
3219  26
3220  32
3221  33
3222  26
3223  35
3224  24
3225  36
3226  38
3227  33
3228  33
3229  26
3230  28
3231  29
3232  25
3233  34
3234  26
3235  27
3236  24
3237  27
3238  33
3239  38
3240  22
3241  25
3242  23
3243  23
3244  25
3245  30
3246  33
3247  38
3248  25
3249  27
3250  30
3251  35
3252  26
3253  38
3254  27
3255  27
3256  30
3257  25
3258  27
3259  19
3260  35
3261  23
3262  28
3263  32
3264  32
3265  33
3266  41
3267  26
3268  29
3269  27
3270  33
3271  34
3272  23
3273  30
3274  25
3275  23
3276  24
3277  31
3278  34
3279  29
3280  32
3281  31
3282  39
3283  30
3284  34
3285  36
3286  30
3287  22
3288  39
3289  27
3290  26
3291  23
3292  30
3293  24
3294  23
3295  24
3296  29
3297  35
3298  35
3299  32
3300  31
3301  29
3302  30
3303  19
3304  17
3305  40
3306  29
3307  47
3308  24
3309  34
3310  37
3311  41
3312  29
3313  35
3314  31
3315  35
3316  26
3317  34
3318  33
3319  36
3320  31
3321  31
3322  40
3323  29
3324  24
3325  29
3326  31
3327  25
3328  36
3329  28
3330  38
3331  29
3332  41
3333  39
3334  23
3335  31
3336  32
3337  29
3338  35
3339  37
3340  22
3341  37
3342  39
3343  36
3344  44
3345  33
3346  38
3347  35
3348  44
3349  36
3350  33
3351  35
3352  46
3353  39
3354  23
3355  37
3356  40
3357  35
3358  39
3359  29
3360  32
3361  25
3362  38
3363  44
3364  36
3365  34
3366  44
3367  28
3368  41
3369  35
3370  30
3371  30
3372  44
3373  39
3374  36
3375  33
3376  38
3377  32
3378  27
3379  44
3380  25
3381  42
3382  36
3383  43
3384  30
3385  37
3386  32
3387  39
3388  41
3389  27
3390  46
3391  38
3392  28
3393  28
3394  48
3395  37
3396  36
3397  25
3398  32
3399  37
3400  40
3401  35
3402  39
3403  37
3404  43
3405  35
3406  38
3407  36
3408  24
3409  29
3410  39
3411  45
3412  35
3413  44
3414  38
3415  31
3416  38
3417  33
3418  40
3419  27
3420  31
3421  24
3422  44
3423  45
3424  43
3425  34
3426  41
3427  26
3428  49
3429  32
3430  49
3431  36
3432  34
3433  28
3434  34
3435  37
3436  36
3437  35
3438  39
3439  31
3440  43
3441  38
3442  30
3443  56
3444  39
3445  49
3446  48
3447  40
3448  43
3449  36
3450  49
3451  39
3452  38
3453  38
3454  42
3455  44
3456  38
3457  38
3458  41
3459  44
3460  42
3461  44
3462  52
3463  48
3464  40
3465  56
3466  55
3467  46
3468  32
3469  42
3470  42
3471  45
3472  46
3473  36
3474  38
3475  44
3476  42
3477  52
3478  46
3479  55
3480  39
3481  48
3482  51
3483  43
3484  56
3485  39
3486  43
3487  47
3488  41
3489  44
3490  51
3491  75
3492  45
3493  48
3494  50
3495  54
3496  56
3497  50
3498  40
3499  46
3500  51
3501  52
3502  46
3503  55
3504  57
3505  57
3506  44
3507  54
3508  48
3509  77
3510  40
3511  53
3512  65
3513  44
3514  60
3515  66
3516  63
3517  70
3518  57
3519  66
3520  66
3521  82
3522  77
3523  79
3524  70
3525  73
3526  112
3527  102
3528  128
3529  146
3530  131
3531  201
3532  201
3533  267
3534  305
3535  347
3536  427
3537  498
3538  611
3539  794
3540  791
3541  1014
3542  1153
3543  1305
3544  1595
3545  1824
3546  2054
3547  2241
3548  2469
3549  2756
3550  2916
3551  3203
3552  3429
3553  3588
3554  3887
3555  4111
3556  4113
3557  4284
3558  4320
3559  4255
3560  4291
3561  4237
3562  4150
3563  4159
3564  3968
3565  3889
3566  3647
3567  3369
3568  3253
3569  3038
3570  2799
3571  2619
3572  2380
3573  2324
3574  2053
3575  1889
3576  1729
3577  1560
3578  1424
3579  1328
3580  1204
3581  1152
3582  1064
3583  1033
3584  946
3585  845
3586  748
3587  677
3588  679
3589  604
3590  601
3591  571
3592  524
3593  466
3594  466
3595  432
3596  411
3597  377
3598  358
3599  333
3600  304
3601  262
3602  252
3603  234
3604  233
3605  198
3606  196
3607  203
3608  172
3609  172
3610  148
3611  156
3612  132
3613  127
3614  108
3615  108
3616  114
3617  86
3618  86
3619  99
3620  67
3621  78
3622  82
3623  68
3624  57
3625  73
3626  67
3627  79
3628  57
3629  56
3630  59
3631  50
3632  60
3633  54
3634  59
3635  56
3636  60
3637  66
3638  53
3639  58
3640  54
3641  55
3642  59
3643  53
3644  73
3645  56
3646  54
3647  65
3648  52
3649  60
3650  52
3651  56
3652  45
3653  61
3654  59
3655  68
3656  40
3657  67
3658  74
3659  56
3660  57
3661  66
3662  56
3663  63
3664  45
3665  57
3666  51
3667  61
3668  59
3669  58
3670  61
3671  66
3672  55
3673  69
3674  49
3675  51
3676  68
3677  57
3678  63
3679  52
3680  59
3681  51
3682  59
3683  49
3684  54
3685  65
3686  59
3687  53
3688  56
3689  54
3690  51
3691  58
3692  71
3693  58
3694  65
3695  59
3696  65
3697  60
3698  55
3699  60
3700  66
3701  41
3702  61
3703  63
3704  58
3705  56
3706  59
3707  54
3708  54
3709  68
3710  56
3711  62
3712  59
3713  49
3714  82
3715  61
3716  86
3717  61
3718  78
3719  49
3720  69
3721  59
3722  66
3723  63
3724  64
3725  59
3726  68
3727  64
3728  57
3729  78
3730  59
3731  62
3732  70
3733  75
3734  67
3735  71
3736  71
3737  50
3738  67
3739  73
3740  72
3741  58
3742  53
3743  57
3744  63
3745  63
3746  49
3747  78
3748  74
3749  73
3750  79
3751  70
3752  59
3753  72
3754  63
3755  58
3756  67
3757  87
3758  64
3759  61
3760  66
3761  62
3762  72
3763  74
3764  76
3765  63
3766  71
3767  67
3768  55
3769  79
3770  68
3771  81
3772  64
3773  75
3774  76
3775  47
3776  65
3777  59
3778  70
3779  64
3780  65
3781  60
3782  56
3783  70
3784  69
3785  67
3786  68
3787  68
3788  83
3789  78
3790  76
3791  57
3792  80
3793  63
3794  80
3795  69
3796  83
3797  79
3798  81
3799  75
3800  77
3801  64
3802  64
3803  87
3804  61
3805  88
3806  73
3807  91
3808  50
3809  74
3810  73
3811  78
3812  70
3813  64
3814  67
3815  68
3816  69
3817  64
3818  71
3819  76
3820  84
3821  85
3822  59
3823  76
3824  75
3825  74
3826  72
3827  68
3828  73
3829  70
3830  67
3831  81
3832  58
3833  67
3834  78
3835  83
3836  76
3837  65
3838  67
3839  73
3840  0
3841  0
3842  0
3843  0
3844  0
3845  0
3846  0
3847  0
3848  0
3849  0
3850  0
3851  0
3852  0
3853  0
3854  0
3855  0
3856  0
3857  0
3858  0
3859  0
3860  0
3861  0
3862  0
3863  0
3864  0
3865  0
3866  0
3867  0
3868  0
3869  0
3870  0
3871  0
3872  0
3873  0
3874  0
3875  0
3876  0
3877  0
3878  0
3879  0
3880  0
3881  0
3882  0
3883  0
3884  0
3885  0
3886  0
3887  0
3888  0
3889  0
3890  0
3891  0
3892  0
3893  0
3894  0
3895  0
3896  0
3897  0
3898  0
3899  0
3900  0
3901  0
3902  0
3903  0
3904  0
3905  0
3906  0
3907  0
3908  0
3909  0
3910  0
3911  0
3912  0
3913  0
3914  0
3915  0
3916  0
3917  0
3918  0
3919  0
3920  0
3921  0
3922  0
3923  0
3924  0
3925  0
3926  0
3927  0
3928  0
3929  0
3930  0
3931  0
3932  0
3933  0
3934  0
3935  0
3936  0
3937  0
3938  0
3939  0
3940  0
3941  0
3942  0
3943  0
3944  0
3945  0
3946  0
3947  0
3948  0
3949  0
3950  0
3951  0
3952  0
3953  0
3954  0
3955  0
3956  0
3957  0
3958  0
3959  0
3960  0
3961  0
3962  0
3963  0
3964  0
3965  0
3966  0
3967  0
3968  0
3969  0
3970  0
3971  0
3972  0
3973  0
3974  0
3975  0
3976  0
3977  0
3978  0
3979  0
3980  0
3981  0
3982  0
3983  0
3984  0
3985  0
3986  0
3987  0
3988  0
3989  0
3990  0
3991  0
3992  0
3993  0
3994  0
3995  0
3996  0
3997  0
3998  0
3999  0
4000  0
4001  0
4002  0
4003  0
4004  0
4005  0
4006  0
4007  0
4008  0
4009  0
4010  0
4011  0
4012  0
4013  0
4014  0
4015  0
4016  0
4017  0
4018  0
4019  0
4020  0
4021  0
4022  0
4023  0
4024  0
4025  0
4026  0
4027  0
4028  0
4029  0
4030  0
4031  0
4032  0
4033  0
4034  0
4035  0
4036  0
4037  0
4038  0
4039  0
4040  0
4041  0
4042  0
4043  0
4044  0
4045  0
4046  0
4047  0
4048  0
4049  0
4050  0
4051  0
4052  0
4053  0
4054  0
4055  0
4056  0
4057  0
4058  0
4059  0
4060  0
4061  0
4062  0
4063  0
4064  0
4065  0
4066  0
4067  0
4068  0
4069  0
4070  0
4071  0
4072  0
4073  0
4074  0
4075  0
4076  0
4077  0
4078  0
4079  0
4080  0
4081  0
4082  0
4083  0
4084  0
4085  0
4086  0
4087  0
4088  0
4089  0
4090  0
4091  0
4092  0
4093  0
4094  0
4095  0
