0  0
1  4
2  4
3  4
4  9
5  2
6  4
7  8
8  10
9  12
10  12
11  11
12  10
13  9
14  13
15  8
16  10
17  8
18  14
19  11
20  7
21  17
22  8
23  7
24  11
25  14
26  8
27  10
28  16
29  16
30  14
31  8
32  20
33  12
34  5
35  21
36  12
37  13
38  11
39  12
40  12
41  15
42  18
43  18
44  14
45  14
46  19
47  15
48  15
49  12
50  15
51  28
52  8
53  17
54  17
55  16
56  16
57  24
58  22
59  20
60  17
61  23
62  23
63  32
64  20
65  19
66  16
67  26
68  33
69  25
70  20
71  24
72  32
73  23
74  30
75  19
76  24
77  22
78  23
79  26
80  24
81  27
82  24
83  24
84  26
85  31
86  37
87  23
88  31
89  30
90  37
91  33
92  31
93  47
94  39
95  46
96  36
97  31
98  44
99  43
100  42
101  45
102  43
103  48
104  53
105  45
106  54
107  45
108  59
109  47
110  55
111  43
112  48
113  44
114  50
115  57
116  52
117  65
118  67
119  64
120  64
121  70
122  65
123  67
124  69
125  69
126  73
127  79
128  62
129  82
130  77
131  76
132  101
133  79
134  93
135  106
136  106
137  107
138  101
139  124
140  121
141  119
142  127
143  134
144  142
145  137
146  144
147  135
148  177
149  177
150  185
151  195
152  221
153  234
154  254
155  262
156  293
157  286
158  293
159  343
160  388
161  458
162  512
163  654
164  838
165  1121
166  1450
167  1916
168  2385
169  2977
170  3408
171  3835
172  4259
173  4604
174  4918
175  5117
176  5059
177  5133
178  5326
179  5112
180  5126
181  5021
182  5155
183  5110
184  4926
185  4983
186  4937
187  4879
188  4904
189  5113
190  4948
191  5109
192  5238
193  5262
194  5446
195  5605
196  5773
197  5914
198  6093
199  6017
200  6180
201  6150
202  5919
203  6008
204  5889
205  5934
206  5747
207  5902
208  5703
209  5792
210  5699
211  5635
212  5632
213  5551
214  5514
215  5504
216  5362
217  5499
218  5417
219  5220
220  5225
221  5148
222  5108
223  5013
224  4967
225  5044
226  4993
227  4948
228  4876
229  4819
230  4762
231  4825
232  4699
233  4756
234  4631
235  4619
236  4704
237  4582
238  4605
239  4610
240  4483
241  4466
242  4514
243  4469
244  4374
245  4354
246  4252
247  4305
248  4197
249  4260
250  4125
251  4151
252  4087
253  4032
254  4152
255  4044
256  3959
257  3945
258  3941
259  3864
260  3825
261  3757
262  3833
263  3832
264  3842
265  3783
266  3791
267  3890
268  3806
269  3828
270  3735
271  3893
272  3806
273  3915
274  3914
275  3952
276  3946
277  3973
278  4090
279  4034
280  4134
281  4181
282  4148
283  4225
284  4322
285  4213
286  4141
287  4290
288  4245
289  4177
290  4241
291  4140
292  4207
293  4098
294  4212
295  4164
296  4038
297  4190
298  4119
299  4041
300  4098
301  4012
302  4093
303  3955
304  4016
305  3925
306  4005
307  4013
308  3962
309  3931
310  3840
311  3977
312  3764
313  3803
314  3976
315  3930
316  3880
317  3877
318  3902
319  4015
320  3865
321  3894
322  3994
323  3919
324  3951
325  4019
326  3885
327  3894
328  3895
329  3876
330  3933
331  4078
332  4015
333  4043
334  3926
335  3946
336  3954
337  4080
338  4042
339  4072
340  3973
341  4026
342  3852
343  4006
344  4052
345  3920
346  3890
347  3947
348  4029
349  4093
350  3920
351  3867
352  3957
353  3936
354  3752
355  3848
356  3944
357  3797
358  3937
359  3814
360  3797
361  3735
362  3857
363  3745
364  3745
365  3830
366  3724
367  3759
368  3796
369  3770
370  3696
371  3636
372  3699
373  3742
374  3637
375  3691
376  3691
377  3528
378  3557
379  3685
380  3591
381  3620
382  3518
383  3701
384  3466
385  3410
386  3527
387  3487
388  3421
389  3433
390  3412
391  3491
392  3318
393  3442
394  3363
395  3377
396  3376
397  3382
398  3288
399  3435
400  3310
401  3310
402  3227
403  3272
404  3215
405  3175
406  3205
407  3222
408  3179
409  3147
410  3133
411  3203
412  3071
413  3147
414  3111
415  3205
416  3076
417  3006
418  3112
419  3083
420  3004
421  3055
422  3040
423  2985
424  2867
425  2893
426  2918
427  2957
428  2952
429  2921
430  2853
431  2890
432  2811
433  2896
434  2939
435  2841
436  2813
437  2891
438  2783
439  2704
440  2797
441  2752
442  2699
443  2760
444  2592
445  2707
446  2626
447  2681
448  2677
449  2626
450  2650
451  2651
452  2711
453  2580
454  2600
455  2658
456  2600
457  2612
458  2631
459  2514
460  2441
461  2553
462  2472
463  2637
464  2465
465  2471
466  2370
467  2515
468  2411
469  2416
470  2529
471  2481
472  2434
473  2463
474  2508
475  2416
476  2517
477  2424
478  2399
479  2422
480  2401
481  2366
482  2342
483  2334
484  2379
485  2325
486  2308
487  2376
488  2466
489  2386
490  2370
491  2193
492  2341
493  2361
494  2323
495  2399
496  2364
497  2281
498  2276
499  2302
500  2318
501  2387
502  2303
503  2324
504  2306
505  2276
506  2301
507  2263
508  2265
509  2321
510  2317
511  2141
512  2243
513  2293
514  2236
515  2284
516  2116
517  2224
518  2244
519  2160
520  2286
521  2228
522  2228
523  2210
524  2151
525  2109
526  2192
527  2221
528  2094
529  2188
530  2141
531  2171
532  2161
533  2181
534  2180
535  2184
536  2171
537  2081
538  2223
539  2062
540  2183
541  2076
542  2179
543  2175
544  2135
545  2129
546  2150
547  2156
548  2026
549  2146
550  2018
551  2105
552  2107
553  2046
554  2090
555  2049
556  1993
557  2072
558  2029
559  2047
560  2098
561  2035
562  2016
563  2085
564  1979
565  2022
566  2039
567  2055
568  1967
569  2027
570  2090
571  1988
572  2046
573  2116
574  2056
575  2050
576  2125
577  2042
578  2079
579  2023
580  2017
581  2096
582  2011
583  1994
584  2128
585  2020
586  2016
587  2003
588  2111
589  1982
590  2078
591  2082
592  2006
593  2050
594  2021
595  2060
596  2073
597  1944
598  2050
599  1989
600  2034
601  1973
602  1976
603  2085
604  2036
605  2072
606  1973
607  1967
608  2051
609  2017
610  2126
611  2060
612  2040
613  2046
614  1973
615  1982
616  2052
617  2091
618  1937
619  2066
620  2030
621  2010
622  2025
623  2010
624  1992
625  2102
626  2034
627  2039
628  2103
629  2038
630  2048
631  2075
632  1974
633  1993
634  2133
635  2015
636  2007
637  1936
638  1997
639  2090
640  2016
641  2063
642  1986
643  2012
644  2013
645  2034
646  2029
647  1992
648  1921
649  1960
650  1946
651  1946
652  2005
653  1945
654  1937
655  1922
656  1964
657  1841
658  1877
659  1810
660  1906
661  1857
662  1922
663  1910
664  1858
665  1885
666  1850
667  1891
668  1790
669  1869
670  1872
671  1840
672  1798
673  1820
674  1744
675  1699
676  1776
677  1787
678  1718
679  1760
680  1690
681  1731
682  1686
683  1646
684  1669
685  1722
686  1691
687  1757
688  1701
689  1595
690  1614
691  1627
692  1588
693  1631
694  1629
695  1502
696  1558
697  1579
698  1566
699  1535
700  1493
701  1561
702  1509
703  1506
704  1424
705  1456
706  1493
707  1465
708  1422
709  1521
710  1436
711  1373
712  1423
713  1397
714  1368
715  1405
716  1383
717  1324
718  1405
719  1311
720  1239
721  1297
722  1257
723  1230
724  1300
725  1293
726  1224
727  1188
728  1190
729  1222
730  1207
731  1198
732  1163
733  1173
734  1141
735  1115
736  1055
737  1119
738  1103
739  1082
740  1133
741  1058
742  1133
743  1064
744  1086
745  1085
746  1032
747  1048
748  1038
749  986
750  989
751  968
752  1000
753  998
754  960
755  956
756  968
757  995
758  939
759  943
760  943
761  965
762  933
763  918
764  894
765  892
766  926
767  901
768  906
769  915
770  856
771  860
772  806
773  910
774  861
775  867
776  842
777  825
778  866
779  811
780  843
781  887
782  827
783  825
784  790
785  841
786  776
787  773
788  777
789  804
790  831
791  766
792  792
793  768
794  766
795  770
796  829
797  775
798  745
799  727
800  737
801  716
802  727
803  763
804  752
805  746
806  771
807  745
808  699
809  708
810  727
811  706
812  697
813  710
814  700
815  700
816  693
817  675
818  710
819  722
820  707
821  681
822  679
823  670
824  670
825  670
826  699
827  725
828  713
829  680
830  677
831  686
832  680
833  686
834  690
835  660
836  687
837  688
838  696
839  630
840  621
841  737
842  646
843  676
844  679
845  639
846  673
847  638
848  612
849  677
850  663
851  644
852  649
853  656
854  632
855  627
856  655
857  616
858  699
859  613
860  616
861  616
862  615
863  633
864  641
865  626
866  641
867  640
868  644
869  607
870  601
871  660
872  601
873  639
874  618
875  573
876  623
877  620
878  636
879  597
880  665
881  619
882  603
883  606
884  637
885  611
886  590
887  620
888  634
889  567
890  613
891  611
892  623
893  558
894  601
895  601
896  598
897  655
898  602
899  594
900  572
901  611
902  541
903  569
904  586
905  601
906  598
907  555
908  561
909  568
910  575
911  560
912  597
913  560
914  573
915  556
916  547
917  562
918  532
919  589
920  575
921  556
922  570
923  534
924  554
925  540
926  530
927  532
928  544
929  556
930  564
931  540
932  523
933  550
934  560
935  582
936  538
937  512
938  554
939  507
940  551
941  527
942  531
943  514
944  539
945  527
946  512
947  521
948  522
949  556
950  512
951  554
952  583
953  516
954  517
955  558
956  542
957  508
958  492
959  534
960  539
961  537
962  505
963  526
964  537
965  514
966  556
967  535
968  529
969  535
970  485
971  495
972  505
973  498
974  502
975  539
976  518
977  494
978  521
979  475
980  478
981  479
982  534
983  544
984  480
985  489
986  506
987  508
988  495
989  496
990  505
991  506
992  519
993  461
994  482
995  490
996  504
997  505
998  540
999  469
1000  449
1001  505
1002  481
1003  476
1004  463
1005  464
1006  492
1007  504
1008  508
1009  497
1010  488
1011  472
1012  462
1013  461
1014  464
1015  492
1016  478
1017  458
1018  495
1019  501
1020  511
1021  449
1022  474
1023  502
1024  430
1025  483
1026  460
1027  440
1028  473
1029  491
1030  472
1031  482
1032  487
1033  455
1034  476
1035  491
1036  481
1037  504
1038  467
1039  476
1040  455
1041  447
1042  439
1043  466
1044  463
1045  440
1046  441
1047  484
1048  486
1049  431
1050  438
1051  509
1052  468
1053  443
1054  458
1055  448
1056  487
1057  437
1058  467
1059  439
1060  426
1061  437
1062  495
1063  426
1064  422
1065  423
1066  441
1067  477
1068  428
1069  404
1070  408
1071  463
1072  442
1073  445
1074  440
1075  443
1076  442
1077  422
1078  426
1079  404
1080  463
1081  427
1082  451
1083  447
1084  429
1085  447
1086  394
1087  438
1088  472
1089  431
1090  433
1091  417
1092  396
1093  416
1094  415
1095  405
1096  439
1097  443
1098  423
1099  443
1100  436
1101  385
1102  433
1103  464
1104  438
1105  414
1106  422
1107  413
1108  445
1109  397
1110  434
1111  442
1112  413
1113  369
1114  415
1115  425
1116  445
1117  418
1118  398
1119  433
1120  434
1121  424
1122  409
1123  411
1124  414
1125  439
1126  406
1127  393
1128  404
1129  413
1130  424
1131  409
1132  379
1133  386
1134  416
1135  377
1136  377
1137  364
1138  403
1139  378
1140  400
1141  432
1142  430
1143  407
1144  370
1145  405
1146  348
1147  417
1148  408
1149  418
1150  395
1151  394
1152  396
1153  386
1154  398
1155  402
1156  406
1157  409
1158  363
1159  398
1160  404
1161  385
1162  395
1163  372
1164  394
1165  415
1166  404
1167  364
1168  408
1169  397
1170  345
1171  372
1172  380
1173  389
1174  377
1175  405
1176  417
1177  389
1178  384
1179  360
1180  331
1181  396
1182  407
1183  388
1184  367
1185  371
1186  373
1187  407
1188  371
1189  357
1190  358
1191  357
1192  365
1193  348
1194  359
1195  378
1196  352
1197  394
1198  378
1199  362
1200  371
1201  361
1202  370
1203  376
1204  351
1205  381
1206  421
1207  367
1208  331
1209  342
1210  334
1211  355
1212  380
1213  393
1214  355
1215  345
1216  399
1217  338
1218  365
1219  315
1220  357
1221  373
1222  360
1223  368
1224  355
1225  365
1226  366
1227  376
1228  354
1229  330
1230  321
1231  335
1232  331
1233  347
1234  353
1235  349
1236  336
1237  385
1238  355
1239  336
1240  339
1241  345
1242  363
1243  372
1244  348
1245  354
1246  323
1247  368
1248  340
1249  371
1250  363
1251  328
1252  325
1253  309
1254  335
1255  327
1256  358
1257  327
1258  310
1259  350
1260  316
1261  329
1262  335
1263  350
1264  334
1265  315
1266  345
1267  328
1268  328
1269  357
1270  315
1271  327
1272  305
1273  304
1274  346
1275  351
1276  318
1277  323
1278  311
1279  334
1280  323
1281  307
1282  303
1283  302
1284  330
1285  308
1286  336
1287  284
1288  292
1289  282
1290  324
1291  332
1292  307
1293  294
1294  332
1295  316
1296  317
1297  288
1298  310
1299  310
1300  295
1301  283
1302  312
1303  311
1304  289
1305  294
1306  249
1307  315
1308  280
1309  264
1310  336
1311  307
1312  279
1313  280
1314  274
1315  293
1316  281
1317  279
1318  288
1319  306
1320  303
1321  277
1322  296
1323  286
1324  291
1325  264
1326  317
1327  288
1328  280
1329  263
1330  279
1331  294
1332  264
1333  266
1334  299
1335  271
1336  264
1337  254
1338  259
1339  274
1340  290
1341  280
1342  280
1343  266
1344  257
1345  257
1346  241
1347  252
1348  273
1349  248
1350  274
1351  269
1352  243
1353  262
1354  276
1355  253
1356  303
1357  239
1358  253
1359  269
1360  279
1361  272
1362  285
1363  247
1364  266
1365  261
1366  266
1367  246
1368  253
1369  264
1370  255
1371  272
1372  259
1373  296
1374  226
1375  280
1376  258
1377  252
1378  210
1379  264
1380  227
1381  261
1382  246
1383  248
1384  268
1385  232
1386  243
1387  252
1388  242
1389  260
1390  255
1391  254
1392  246
1393  226
1394  226
1395  244
1396  230
1397  243
1398  206
1399  223
1400  246
1401  234
1402  259
1403  218
1404  252
1405  246
1406  241
1407  243
1408  243
1409  229
1410  254
1411  224
1412  215
1413  244
1414  223
1415  210
1416  224
1417  228
1418  240
1419  222
1420  217
1421  247
1422  214
1423  258
1424  197
1425  239
1426  202
1427  251
1428  244
1429  215
1430  212
1431  219
1432  200
1433  231
1434  225
1435  227
1436  229
1437  221
1438  210
1439  238
1440  225
1441  203
1442  212
1443  233
1444  203
1445  212
1446  214
1447  224
1448  229
1449  219
1450  219
1451  214
1452  208
1453  205
1454  220
1455  233
1456  186
1457  184
1458  208
1459  220
1460  208
1461  212
1462  212
1463  214
1464  207
1465  183
1466  195
1467  199
1468  190
1469  199
1470  229
1471  221
1472  190
1473  188
1474  214
1475  203
1476  194
1477  210
1478  218
1479  192
1480  187
1481  216
1482  205
1483  187
1484  210
1485  165
1486  184
1487  192
1488  198
1489  217
1490  198
1491  197
1492  192
1493  212
1494  181
1495  187
1496  186
1497  191
1498  196
1499  179
1500  206
1501  197
1502  151
1503  170
1504  205
1505  182
1506  193
1507  196
1508  200
1509  194
1510  205
1511  192
1512  183
1513  193
1514  212
1515  166
1516  170
1517  183
1518  189
1519  187
1520  191
1521  190
1522  159
1523  183
1524  200
1525  184
1526  181
1527  173
1528  172
1529  193
1530  169
1531  191
1532  174
1533  184
1534  175
1535  158
1536  157
1537  190
1538  204
1539  157
1540  177
1541  166
1542  168
1543  168
1544  158
1545  196
1546  188
1547  166
1548  151
1549  181
1550  169
1551  173
1552  149
1553  181
1554  170
1555  189
1556  191
1557  167
1558  163
1559  177
1560  166
1561  167
1562  170
1563  186
1564  181
1565  178
1566  178
1567  176
1568  171
1569  152
1570  185
1571  190
1572  161
1573  166
1574  161
1575  157
1576  169
1577  176
1578  145
1579  160
1580  183
1581  150
1582  183
1583  168
1584  155
1585  143
1586  156
1587  143
1588  168
1589  127
1590  154
1591  175
1592  146
1593  158
1594  155
1595  164
1596  170
1597  172
1598  152
1599  175
1600  157
1601  149
1602  156
1603  144
1604  163
1605  143
1606  181
1607  144
1608  143
1609  146
1610  153
1611  161
1612  153
1613  146
1614  142
1615  144
1616  161
1617  159
1618  139
1619  149
1620  153
1621  161
1622  160
1623  151
1624  143
1625  134
1626  153
1627  134
1628  137
1629  126
1630  158
1631  143
1632  138
1633  124
1634  176
1635  153
1636  141
1637  169
1638  144
1639  179
1640  149
1641  135
1642  152
1643  138
1644  150
1645  127
1646  159
1647  152
1648  151
1649  140
1650  167
1651  152
1652  117
1653  139
1654  126
1655  137
1656  145
1657  142
1658  138
1659  119
1660  119
1661  124
1662  138
1663  147
1664  157
1665  121
1666  150
1667  130
1668  123
1669  135
1670  156
1671  127
1672  118
1673  155
1674  128
1675  151
1676  132
1677  154
1678  134
1679  147
1680  121
1681  136
1682  143
1683  118
1684  119
1685  139
1686  125
1687  127
1688  126
1689  113
1690  124
1691  114
1692  126
1693  128
1694  132
1695  113
1696  100
1697  116
1698  132
1699  105
1700  131
1701  126
1702  150
1703  123
1704  134
1705  135
1706  126
1707  121
1708  128
1709  108
1710  125
1711  108
1712  104
1713  109
1714  122
1715  112
1716  92
1717  113
1718  90
1719  146
1720  147
1721  117
1722  120
1723  136
1724  127
1725  125
1726  120
1727  112
1728  115
1729  123
1730  116
1731  117
1732  90
1733  114
1734  125
1735  114
1736  100
1737  126
1738  131
1739  103
1740  114
1741  112
1742  99
1743  119
1744  121
1745  115
1746  113
1747  119
1748  77
1749  101
1750  107
1751  110
1752  128
1753  100
1754  105
1755  112
1756  114
1757  99
1758  106
1759  109
1760  101
1761  108
1762  111
1763  97
1764  100
1765  104
1766  108
1767  108
1768  106
1769  115
1770  102
1771  99
1772  90
1773  97
1774  104
1775  101
1776  128
1777  104
1778  113
1779  114
1780  103
1781  103
1782  93
1783  112
1784  97
1785  103
1786  111
1787  103
1788  80
1789  91
1790  102
1791  87
1792  105
1793  115
1794  106
1795  124
1796  94
1797  98
1798  91
1799  79
1800  104
1801  78
1802  77
1803  99
1804  87
1805  83
1806  76
1807  109
1808  103
1809  96
1810  86
1811  103
1812  109
1813  82
1814  103
1815  97
1816  91
1817  101
1818  85
1819  90
1820  92
1821  92
1822  107
1823  79
1824  93
1825  79
1826  76
1827  83
1828  85
1829  103
1830  90
1831  92
1832  86
1833  81
1834  92
1835  75
1836  70
1837  83
1838  76
1839  74
1840  83
1841  73
1842  66
1843  88
1844  83
1845  78
1846  88
1847  84
1848  82
1849  78
1850  84
1851  91
1852  90
1853  76
1854  97
1855  69
1856  98
1857  83
1858  84
1859  68
1860  90
1861  76
1862  81
1863  74
1864  74
1865  68
1866  93
1867  64
1868  80
1869  68
1870  67
1871  91
1872  86
1873  73
1874  67
1875  78
1876  88
1877  61
1878  64
1879  79
1880  73
1881  95
1882  72
1883  75
1884  64
1885  74
1886  92
1887  78
1888  66
1889  72
1890  74
1891  72
1892  75
1893  69
1894  68
1895  64
1896  59
1897  55
1898  71
1899  60
1900  62
1901  76
1902  60
1903  55
1904  58
1905  71
1906  76
1907  68
1908  56
1909  65
1910  74
1911  56
1912  69
1913  47
1914  60
1915  56
1916  71
1917  81
1918  76
1919  55
1920  62
1921  52
1922  81
1923  71
1924  70
1925  66
1926  43
1927  56
1928  80
1929  62
1930  58
1931  48
1932  92
1933  69
1934  80
1935  61
1936  65
1937  45
1938  58
1939  73
1940  72
1941  56
1942  72
1943  58
1944  47
1945  61
1946  61
1947  67
1948  71
1949  68
1950  70
1951  72
1952  60
1953  73
1954  63
1955  59
1956  66
1957  64
1958  62
1959  67
1960  57
1961  60
1962  55
1963  51
1964  63
1965  54
1966  51
1967  59
1968  60
1969  63
1970  60
1971  47
1972  58
1973  63
1974  63
1975  58
1976  50
1977  55
1978  57
1979  60
1980  53
1981  55
1982  57
1983  58
1984  62
1985  78
1986  57
1987  66
1988  48
1989  45
1990  52
1991  52
1992  52
1993  57
1994  56
1995  47
1996  44
1997  59
1998  51
1999  55
2000  43
2001  43
2002  54
2003  47
2004  54
2005  56
2006  51
2007  46
2008  59
2009  61
2010  39
2011  51
2012  49
2013  53
2014  56
2015  44
2016  61
2017  44
2018  54
2019  48
2020  47
2021  58
2022  43
2023  42
2024  41
2025  70
2026  58
2027  50
2028  45
2029  48
2030  51
2031  47
2032  48
2033  53
2034  61
2035  35
2036  37
2037  47
2038  44
2039  45
2040  46
2041  58
2042  50
2043  56
2044  43
2045  55
2046  47
2047  44
2048  48
2049  44
2050  50
2051  45
2052  41
2053  53
2054  38
2055  40
2056  47
2057  49
2058  41
2059  46
2060  46
2061  44
2062  52
2063  31
2064  55
2065  52
2066  45
2067  51
2068  43
2069  50
2070  39
2071  42
2072  39
2073  41
2074  50
2075  47
2076  45
2077  41
2078  41
2079  57
2080  42
2081  41
2082  54
2083  54
2084  38
2085  39
2086  40
2087  45
2088  46
2089  39
2090  48
2091  52
2092  35
2093  48
2094  31
2095  48
2096  38
2097  37
2098  42
2099  37
2100  37
2101  30
2102  43
2103  41
2104  38
2105  40
2106  55
2107  38
2108  35
2109  35
2110  38
2111  32
2112  35
2113  45
2114  41
2115  47
2116  44
2117  55
2118  37
2119  39
2120  41
2121  33
2122  49
2123  46
2124  38
2125  46
2126  38
2127  37
2128  35
2129  43
2130  32
2131  50
2132  31
2133  31
2134  53
2135  42
2136  37
2137  35
2138  38
2139  34
2140  53
2141  41
2142  35
2143  34
2144  38
2145  35
2146  48
2147  25
2148  36
2149  39
2150  41
2151  43
2152  26
2153  41
2154  33
2155  36
2156  51
2157  36
2158  28
2159  35
2160  45
2161  33
2162  29
2163  38
2164  42
2165  33
2166  38
2167  32
2168  39
2169  44
2170  27
2171  39
2172  37
2173  40
2174  41
2175  37
2176  29
2177  38
2178  31
2179  34
2180  34
2181  31
2182  31
2183  29
2184  39
2185  30
2186  27
2187  38
2188  32
2189  27
2190  26
2191  38
2192  31
2193  36
2194  27
2195  30
2196  34
2197  37
2198  33
2199  34
2200  24
2201  37
2202  29
2203  31
2204  41
2205  30
2206  39
2207  34
2208  24
2209  25
2210  31
2211  25
2212  27
2213  31
2214  30
2215  36
2216  24
2217  25
2218  30
2219  30
2220  29
2221  22
2222  29
2223  35
2224  28
2225  32
2226  30
2227  37
2228  32
2229  38
2230  30
2231  39
2232  44
2233  27
2234  37
2235  25
2236  35
2237  27
2238  20
2239  26
2240  34
2241  27
2242  31
2243  26
2244  28
2245  26
2246  16
2247  29
2248  26
2249  35
2250  22
2251  23
2252  18
2253  28
2254  26
2255  28
2256  22
2257  29
2258  22
2259  28
2260  17
2261  44
2262  16
2263  34
2264  40
2265  30
2266  27
2267  29
2268  22
2269  26
2270  32
2271  19
2272  28
2273  35
2274  41
2275  34
2276  23
2277  31
2278  21
2279  19
2280  28
2281  15
2282  30
2283  28
2284  31
2285  24
2286  21
2287  25
2288  28
2289  23
2290  28
2291  24
2292  21
2293  22
2294  25
2295  29
2296  28
2297  31
2298  22
2299  24
2300  22
2301  21
2302  36
2303  25
2304  33
2305  28
2306  21
2307  22
2308  15
2309  16
2310  27
2311  28
2312  23
2313  32
2314  33
2315  27
2316  22
2317  24
2318  26
2319  28
2320  23
2321  13
2322  19
2323  18
2324  20
2325  19
2326  31
2327  19
2328  26
2329  19
2330  34
2331  21
2332  20
2333  29
2334  16
2335  22
2336  33
2337  19
2338  25
2339  13
2340  20
2341  23
2342  25
2343  26
2344  19
2345  23
2346  18
2347  20
2348  20
2349  19
2350  13
2351  13
2352  23
2353  21
2354  18
2355  20
2356  20
2357  18
2358  21
2359  21
2360  24
2361  22
2362  24
2363  24
2364  30
2365  18
2366  24
2367  18
2368  28
2369  21
2370  21
2371  13
2372  32
2373  18
2374  25
2375  20
2376  20
2377  22
2378  12
2379  17
2380  18
2381  20
2382  13
2383  19
2384  26
2385  18
2386  23
2387  18
2388  22
2389  12
2390  24
2391  25
2392  24
2393  22
2394  15
2395  25
2396  17
2397  21
2398  21
2399  21
2400  20
2401  22
2402  20
2403  19
2404  12
2405  23
2406  16
2407  13
2408  17
2409  18
2410  20
2411  13
2412  17
2413  16
2414  14
2415  18
2416  17
2417  21
2418  13
2419  12
2420  22
2421  15
2422  23
2423  25
2424  13
2425  18
2426  15
2427  14
2428  11
2429  14
2430  10
2431  22
2432  14
2433  19
2434  15
2435  12
2436  18
2437  19
2438  10
2439  14
2440  15
2441  18
2442  20
2443  20
2444  25
2445  20
2446  15
2447  17
2448  20
2449  16
2450  14
2451  13
2452  16
2453  17
2454  16
2455  16
2456  19
2457  19
2458  14
2459  17
2460  13
2461  11
2462  20
2463  12
2464  13
2465  13
2466  18
2467  18
2468  17
2469  12
2470  12
2471  19
2472  15
2473  17
2474  19
2475  21
2476  7
2477  22
2478  13
2479  8
2480  22
2481  16
2482  10
2483  12
2484  12
2485  14
2486  10
2487  7
2488  12
2489  21
2490  8
2491  11
2492  18
2493  9
2494  18
2495  14
2496  18
2497  10
2498  13
2499  15
2500  21
2501  7
2502  7
2503  25
2504  8
2505  7
2506  8
2507  12
2508  13
2509  11
2510  12
2511  14
2512  13
2513  12
2514  12
2515  16
2516  11
2517  12
2518  18
2519  11
2520  11
2521  16
2522  8
2523  6
2524  13
2525  9
2526  9
2527  16
2528  13
2529  15
2530  20
2531  19
2532  7
2533  10
2534  12
2535  16
2536  10
2537  9
2538  12
2539  8
2540  15
2541  14
2542  9
2543  5
2544  14
2545  8
2546  18
2547  13
2548  9
2549  9
2550  20
2551  8
2552  13
2553  9
2554  10
2555  12
2556  8
2557  5
2558  15
2559  13
2560  9
2561  9
2562  14
2563  10
2564  14
2565  9
2566  10
2567  12
2568  9
2569  12
2570  12
2571  4
2572  14
2573  11
2574  8
2575  13
2576  13
2577  4
2578  9
2579  8
2580  3
2581  9
2582  7
2583  13
2584  13
2585  13
2586  8
2587  9
2588  7
2589  11
2590  8
2591  9
2592  11
2593  5
2594  7
2595  8
2596  8
2597  6
2598  5
2599  8
2600  5
2601  7
2602  6
2603  10
2604  4
2605  11
2606  9
2607  3
2608  5
2609  9
2610  12
2611  9
2612  9
2613  7
2614  11
2615  7
2616  6
2617  7
2618  7
2619  5
2620  6
2621  7
2622  8
2623  12
2624  8
2625  6
2626  9
2627  10
2628  10
2629  13
2630  9
2631  10
2632  6
2633  4
2634  9
2635  9
2636  8
2637  6
2638  7
2639  11
2640  9
2641  6
2642  8
2643  13
2644  7
2645  10
2646  5
2647  8
2648  3
2649  7
2650  5
2651  10
2652  5
2653  12
2654  7
2655  6
2656  8
2657  4
2658  6
2659  5
2660  6
2661  6
2662  8
2663  8
2664  6
2665  3
2666  12
2667  15
2668  12
2669  5
2670  8
2671  10
2672  8
2673  12
2674  5
2675  11
2676  5
2677  8
2678  7
2679  5
2680  3
2681  7
2682  5
2683  5
2684  10
2685  5
2686  5
2687  5
2688  6
2689  6
2690  5
2691  5
2692  4
2693  12
2694  7
2695  7
2696  7
2697  7
2698  5
2699  8
2700  7
2701  9
2702  4
2703  2
2704  4
2705  9
2706  4
2707  5
2708  7
2709  2
2710  10
2711  5
2712  5
2713  3
2714  6
2715  2
2716  8
2717  8
2718  8
2719  8
2720  7
2721  10
2722  6
2723  10
2724  5
2725  6
2726  9
2727  5
2728  5
2729  6
2730  5
2731  7
2732  6
2733  8
2734  6
2735  4
2736  5
2737  2
2738  3
2739  6
2740  5
2741  4
2742  8
2743  7
2744  3
2745  2
2746  9
2747  5
2748  6
2749  3
2750  4
2751  4
2752  6
2753  7
2754  3
2755  4
2756  4
2757  7
2758  2
2759  4
2760  3
2761  2
2762  4
2763  4
2764  8
2765  4
2766  5
2767  3
2768  5
2769  2
2770  4
2771  6
2772  4
2773  2
2774  4
2775  4
2776  3
2777  9
2778  6
2779  6
2780  7
2781  4
2782  4
2783  3
2784  3
2785  3
2786  5
2787  1
2788  10
2789  6
2790  7
2791  0
2792  4
2793  6
2794  4
2795  2
2796  6
2797  10
2798  4
2799  5
2800  3
2801  5
2802  4
2803  3
2804  3
2805  4
2806  6
2807  4
2808  5
2809  2
2810  5
2811  0
2812  3
2813  4
2814  9
2815  2
2816  5
2817  5
2818  5
2819  1
2820  10
2821  2
2822  3
2823  2
2824  2
2825  5
2826  6
2827  3
2828  3
2829  7
2830  2
2831  5
2832  2
2833  2
2834  0
2835  2
2836  9
2837  6
2838  6
2839  5
2840  5
2841  2
2842  3
2843  3
2844  2
2845  4
2846  5
2847  4
2848  5
2849  3
2850  4
2851  3
2852  3
2853  3
2854  7
2855  3
2856  6
2857  5
2858  2
2859  3
2860  3
2861  2
2862  4
2863  3
2864  2
2865  8
2866  3
2867  6
2868  4
2869  4
2870  3
2871  2
2872  1
2873  7
2874  2
2875  3
2876  6
2877  4
2878  5
2879  6
2880  6
2881  4
2882  4
2883  6
2884  1
2885  8
2886  7
2887  4
2888  0
2889  5
2890  2
2891  3
2892  6
2893  2
2894  3
2895  5
2896  1
2897  2
2898  4
2899  6
2900  6
2901  4
2902  4
2903  4
2904  6
2905  3
2906  4
2907  7
2908  3
2909  3
2910  3
2911  6
2912  2
2913  5
2914  1
2915  1
2916  5
2917  3
2918  5
2919  2
2920  2
2921  6
2922  3
2923  0
2924  2
2925  3
2926  3
2927  5
2928  5
2929  6
2930  3
2931  1
2932  3
2933  5
2934  3
2935  1
2936  4
2937  2
2938  2
2939  1
2940  5
2941  4
2942  1
2943  0
2944  1
2945  3
2946  0
2947  3
2948  2
2949  0
2950  2
2951  4
2952  3
2953  2
2954  2
2955  1
2956  2
2957  3
2958  2
2959  4
2960  1
2961  5
2962  3
2963  0
2964  3
2965  0
2966  4
2967  3
2968  5
2969  3
2970  7
2971  4
2972  3
2973  1
2974  2
2975  5
2976  3
2977  4
2978  3
2979  4
2980  1
2981  2
2982  1
2983  3
2984  2
2985  3
2986  1
2987  4
2988  4
2989  3
2990  2
2991  5
2992  0
2993  2
2994  2
2995  3
2996  2
2997  3
2998  3
2999  3
3000  5
3001  3
3002  4
3003  1
3004  3
3005  6
3006  5
3007  2
3008  3
3009  0
3010  2
3011  3
3012  5
3013  4
3014  4
3015  2
3016  1
3017  1
3018  3
3019  3
3020  4
3021  0
3022  1
3023  0
3024  2
3025  1
3026  1
3027  3
3028  2
3029  1
3030  0
3031  1
3032  3
3033  2
3034  1
3035  1
3036  0
3037  1
3038  2
3039  1
3040  2
3041  0
3042  2
3043  1
3044  1
3045  4
3046  2
3047  3
3048  2
3049  1
3050  2
3051  0
3052  0
3053  0
3054  4
3055  0
3056  2
3057  4
3058  3
3059  1
3060  0
3061  3
3062  1
3063  0
3064  0
3065  2
3066  3
3067  5
3068  5
3069  2
3070  3
3071  3
3072  2
3073  1
3074  2
3075  2
3076  1
3077  0
3078  1
3079  1
3080  1
3081  4
3082  1
3083  2
3084  4
3085  2
3086  3
3087  0
3088  1
3089  4
3090  0
3091  4
3092  4
3093  0
3094  1
3095  4
3096  3
3097  2
3098  2
3099  2
3100  1
3101  2
3102  0
3103  1
3104  0
3105  1
3106  3
3107  1
3108  2
3109  1
3110  2
3111  1
3112  2
3113  1
3114  0
3115  2
3116  0
3117  0
3118  0
3119  0
3120  2
3121  1
3122  4
3123  0
3124  0
3125  2
3126  1
3127  3
3128  0
3129  2
3130  0
3131  1
3132  0
3133  0
3134  1
3135  0
3136  2
3137  2
3138  1
3139  0
3140  0
3141  1
3142  2
3143  2
3144  2
3145  2
3146  0
3147  1
3148  0
3149  1
3150  0
3151  3
3152  1
3153  0
3154  2
3155  3
3156  0
3157  0
3158  3
3159  0
3160  2
3161  1
3162  1
3163  2
3164  0
3165  2
3166  1
3167  0
3168  1
3169  1
3170  3
3171  3
3172  2
3173  2
3174  1
3175  1
3176  0
3177  0
3178  2
3179  0
3180  2
3181  3
3182  0
3183  1
3184  1
3185  1
3186  1
3187  0
3188  2
3189  1
3190  0
3191  0
3192  1
3193  0
3194  1
3195  0
3196  1
3197  3
3198  1
3199  1
3200  0
3201  1
3202  3
3203  1
3204  1
3205  1
3206  1
3207  1
3208  1
3209  0
3210  3
3211  0
3212  0
3213  3
3214  0
3215  3
3216  2
3217  1
3218  1
3219  1
3220  0
3221  1
3222  0
3223  0
3224  3
3225  2
3226  0
3227  1
3228  0
3229  0
3230  2
3231  0
3232  1
3233  1
3234  1
3235  2
3236  0
3237  1
3238  0
3239  0
3240  0
3241  0
3242  0
3243  1
3244  1
3245  0
3246  0
3247  1
3248  0
3249  1
3250  2
3251  0
3252  0
3253  1
3254  0
3255  2
3256  1
3257  1
3258  0
3259  0
3260  1
3261  1
3262  1
3263  2
3264  1
3265  0
3266  0
3267  1
3268  1
3269  2
3270  1
3271  0
3272  0
3273  0
3274  1
3275  0
3276  0
3277  0
3278  2
3279  0
3280  1
3281  0
3282  0
3283  0
3284  0
3285  1
3286  3
3287  1
3288  0
3289  1
3290  0
3291  1
3292  2
3293  1
3294  0
3295  1
3296  1
3297  0
3298  1
3299  2
3300  0
3301  1
3302  0
3303  0
3304  1
3305  1
3306  1
3307  2
3308  1
3309  0
3310  0
3311  2
3312  1
3313  0
3314  0
3315  0
3316  1
3317  0
3318  2
3319  0
3320  0
3321  0
3322  0
3323  0
3324  0
3325  1
3326  0
3327  0
3328  0
3329  2
3330  1
3331  1
3332  1
3333  0
3334  1
3335  0
3336  0
3337  0
3338  1
3339  0
3340  0
3341  0
3342  0
3343  0
3344  0
3345  0
3346  1
3347  1
3348  1
3349  0
3350  1
3351  0
3352  0
3353  0
3354  0
3355  0
3356  0
3357  2
3358  1
3359  0
3360  1
3361  1
3362  0
3363  2
3364  0
3365  0
3366  0
3367  0
3368  0
3369  0
3370  0
3371  1
3372  0
3373  0
3374  1
3375  0
3376  0
3377  0
3378  0
3379  0
3380  0
3381  0
3382  1
3383  1
3384  0
3385  1
3386  0
3387  0
3388  0
3389  0
3390  2
3391  1
3392  1
3393  0
3394  1
3395  1
3396  0
3397  0
3398  0
3399  1
3400  0
3401  0
3402  0
3403  0
3404  0
3405  0
3406  0
3407  0
3408  0
3409  0
3410  0
3411  0
3412  0
3413  0
3414  1
3415  1
3416  0
3417  0
3418  1
3419  0
3420  0
3421  1
3422  0
3423  0
3424  1
3425  2
3426  0
3427  0
3428  0
3429  1
3430  0
3431  2
3432  0
3433  0
3434  1
3435  1
3436  0
3437  0
3438  0
3439  1
3440  0
3441  0
3442  0
3443  1
3444  0
3445  0
3446  0
3447  1
3448  0
3449  1
3450  0
3451  1
3452  0
3453  0
3454  0
3455  0
3456  0
3457  0
3458  0
3459  0
3460  0
3461  1
3462  0
3463  0
3464  1
3465  1
3466  1
3467  1
3468  1
3469  1
3470  0
3471  0
3472  1
3473  2
3474  1
3475  3
3476  3
3477  1
3478  2
3479  0
3480  2
3481  0
3482  1
3483  4
3484  0
3485  1
3486  1
3487  2
3488  1
3489  6
3490  1
3491  1
3492  0
3493  1
3494  2
3495  3
3496  1
3497  1
3498  0
3499  0
3500  1
3501  0
3502  0
3503  0
3504  1
3505  0
3506  0
3507  1
3508  0
3509  0
3510  1
3511  0
3512  0
3513  1
3514  0
3515  0
3516  0
3517  1
3518  0
3519  0
3520  0
3521  1
3522  1
3523  0
3524  0
3525  0
3526  0
3527  0
3528  0
3529  1
3530  1
3531  0
3532  0
3533  0
3534  0
3535  0
3536  0
3537  0
3538  0
3539  0
3540  0
3541  0
3542  0
3543  0
3544  0
3545  1
3546  0
3547  0
3548  0
3549  0
3550  0
3551  0
3552  0
3553  0
3554  1
3555  0
3556  0
3557  0
3558  0
3559  1
3560  0
3561  1
3562  0
3563  0
3564  0
3565  1
3566  0
3567  0
3568  0
3569  0
3570  0
3571  1
3572  0
3573  1
3574  0
3575  0
3576  1
3577  3
3578  0
3579  0
3580  0
3581  0
3582  0
3583  0
3584  1
3585  0
3586  0
3587  0
3588  1
3589  1
3590  0
3591  2
3592  1
3593  1
3594  1
3595  3
3596  1
3597  2
3598  0
3599  0
3600  0
3601  0
3602  0
3603  0
3604  0
3605  0
3606  0
3607  0
3608  0
3609  0
3610  0
3611  0
3612  0
3613  0
3614  0
3615  0
3616  0
3617  0
3618  0
3619  0
3620  0
3621  0
3622  0
3623  0
3624  0
3625  0
3626  0
3627  0
3628  0
3629  0
3630  0
3631  0
3632  0
3633  0
3634  0
3635  0
3636  0
3637  0
3638  0
3639  0
3640  0
3641  0
3642  0
3643  0
3644  0
3645  0
3646  0
3647  0
3648  0
3649  0
3650  0
3651  0
3652  0
3653  0
3654  0
3655  0
3656  0
3657  0
3658  0
3659  0
3660  0
3661  0
3662  0
3663  0
3664  0
3665  0
3666  0
3667  0
3668  0
3669  0
3670  0
3671  0
3672  0
3673  0
3674  0
3675  0
3676  0
3677  0
3678  0
3679  0
3680  0
3681  0
3682  0
3683  0
3684  0
3685  0
3686  0
3687  0
3688  0
3689  0
3690  0
3691  0
3692  0
3693  0
3694  0
3695  0
3696  0
3697  0
3698  0
3699  0
3700  0
3701  0
3702  0
3703  0
3704  0
3705  0
3706  0
3707  0
3708  0
3709  0
3710  0
3711  0
3712  0
3713  0
3714  0
3715  0
3716  0
3717  0
3718  0
3719  0
3720  0
3721  0
3722  0
3723  0
3724  0
3725  0
3726  0
3727  0
3728  0
3729  0
3730  0
3731  0
3732  0
3733  0
3734  0
3735  0
3736  0
3737  0
3738  0
3739  0
3740  0
3741  0
3742  0
3743  0
3744  0
3745  0
3746  0
3747  0
3748  0
3749  0
3750  0
3751  0
3752  0
3753  0
3754  0
3755  0
3756  0
3757  0
3758  0
3759  0
3760  0
3761  0
3762  0
3763  0
3764  0
3765  0
3766  0
3767  0
3768  0
3769  0
3770  0
3771  0
3772  0
3773  0
3774  0
3775  0
3776  0
3777  0
3778  0
3779  0
3780  0
3781  0
3782  0
3783  0
3784  0
3785  0
3786  0
3787  0
3788  0
3789  0
3790  0
3791  0
3792  0
3793  0
3794  0
3795  0
3796  0
3797  0
3798  0
3799  0
3800  0
3801  0
3802  0
3803  0
3804  0
3805  0
3806  0
3807  0
3808  0
3809  0
3810  0
3811  0
3812  0
3813  0
3814  0
3815  0
3816  0
3817  0
3818  0
3819  0
3820  0
3821  0
3822  0
3823  0
3824  0
3825  0
3826  0
3827  0
3828  0
3829  0
3830  0
3831  0
3832  0
3833  0
3834  0
3835  0
3836  0
3837  0
3838  0
3839  0
3840  0
3841  0
3842  0
3843  0
3844  0
3845  0
3846  0
3847  0
3848  0
3849  0
3850  0
3851  0
3852  0
3853  0
3854  0
3855  0
3856  0
3857  0
3858  0
3859  0
3860  0
3861  0
3862  0
3863  0
3864  0
3865  0
3866  0
3867  0
3868  0
3869  0
3870  0
3871  0
3872  0
3873  0
3874  0
3875  0
3876  0
3877  0
3878  0
3879  0
3880  0
3881  0
3882  0
3883  0
3884  0
3885  0
3886  0
3887  0
3888  0
3889  0
3890  0
3891  0
3892  0
3893  0
3894  0
3895  0
3896  0
3897  0
3898  0
3899  0
3900  0
3901  0
3902  0
3903  0
3904  0
3905  0
3906  0
3907  0
3908  0
3909  0
3910  0
3911  0
3912  0
3913  0
3914  0
3915  0
3916  0
3917  0
3918  0
3919  0
3920  0
3921  0
3922  0
3923  0
3924  0
3925  0
3926  0
3927  0
3928  0
3929  0
3930  0
3931  0
3932  0
3933  0
3934  0
3935  0
3936  0
3937  0
3938  0
3939  0
3940  0
3941  0
3942  0
3943  0
3944  0
3945  0
3946  0
3947  0
3948  0
3949  0
3950  0
3951  0
3952  0
3953  0
3954  0
3955  0
3956  0
3957  0
3958  0
3959  0
3960  0
3961  0
3962  0
3963  0
3964  0
3965  0
3966  0
3967  0
3968  0
3969  0
3970  0
3971  0
3972  0
3973  0
3974  0
3975  0
3976  0
3977  0
3978  0
3979  0
3980  0
3981  0
3982  0
3983  0
3984  0
3985  0
3986  0
3987  0
3988  0
3989  0
3990  0
3991  0
3992  0
3993  0
3994  0
3995  0
3996  0
3997  0
3998  0
3999  0
4000  0
4001  0
4002  0
4003  0
4004  0
4005  0
4006  0
4007  0
4008  0
4009  0
4010  0
4011  0
4012  0
4013  0
4014  0
4015  0
4016  0
4017  0
4018  0
4019  0
4020  0
4021  0
4022  0
4023  0
4024  0
4025  0
4026  0
4027  0
4028  0
4029  0
4030  0
4031  0
4032  0
4033  0
4034  0
4035  0
4036  0
4037  0
4038  0
4039  0
4040  0
4041  0
4042  0
4043  0
4044  0
4045  0
4046  0
4047  0
4048  0
4049  0
4050  0
4051  0
4052  0
4053  0
4054  0
4055  0
4056  0
4057  0
4058  0
4059  0
4060  0
4061  0
4062  0
4063  0
4064  0
4065  0
4066  0
4067  0
4068  0
4069  0
4070  0
4071  0
4072  0
4073  0
4074  0
4075  0
4076  0
4077  0
4078  0
4079  0
4080  0
4081  0
4082  0
4083  0
4084  0
4085  0
4086  0
4087  0
4088  0
4089  0
4090  0
4091  0
4092  0
4093  0
4094  0
4095  0
