0  2
1  0
2  0
3  0
4  2
5  1
6  0
7  1
8  1
9  2
10  0
11  0
12  3
13  1
14  3
15  2
16  0
17  1
18  2
19  1
20  0
21  1
22  0
23  0
24  2
25  4
26  0
27  0
28  1
29  0
30  2
31  1
32  1
33  0
34  0
35  1
36  0
37  1
38  1
39  1
40  0
41  2
42  2
43  1
44  0
45  3
46  2
47  2
48  2
49  0
50  2
51  0
52  1
53  3
54  3
55  2
56  0
57  2
58  1
59  5
60  4
61  3
62  2
63  4
64  0
65  0
66  2
67  1
68  5
69  4
70  4
71  3
72  3
73  4
74  5
75  1
76  7
77  4
78  3
79  3
80  2
81  3
82  1
83  4
84  0
85  3
86  6
87  2
88  4
89  3
90  5
91  7
92  4
93  7
94  6
95  6
96  2
97  1
98  5
99  8
100  5
101  2
102  6
103  6
104  4
105  10
106  6
107  10
108  9
109  10
110  9
111  3
112  4
113  7
114  5
115  12
116  8
117  8
118  10
119  15
120  15
121  10
122  15
123  14
124  13
125  12
126  12
127  8
128  2
129  15
130  13
131  10
132  17
133  11
134  16
135  14
136  17
137  15
138  16
139  12
140  13
141  16
142  21
143  24
144  19
145  15
146  15
147  21
148  24
149  25
150  24
151  23
152  18
153  20
154  13
155  25
156  23
157  21
158  21
159  26
160  38
161  27
162  16
163  39
164  25
165  36
166  35
167  53
168  44
169  54
170  51
171  53
172  58
173  63
174  51
175  81
176  60
177  76
178  88
179  87
180  92
181  93
182  101
183  114
184  133
185  125
186  165
187  208
188  253
189  337
190  400
191  528
192  608
193  771
194  921
195  1121
196  1270
197  1388
198  1534
199  1545
200  1647
201  1697
202  1634
203  1686
204  1645
205  1657
206  1625
207  1688
208  1563
209  1691
210  1620
211  1656
212  1678
213  1600
214  1516
215  1476
216  1553
217  1504
218  1662
219  1447
220  1486
221  1476
222  1501
223  1474
224  1455
225  1515
226  1455
227  1450
228  1407
229  1392
230  1363
231  1438
232  1352
233  1445
234  1349
235  1316
236  1359
237  1301
238  1301
239  1357
240  1324
241  1302
242  1358
243  1340
244  1319
245  1329
246  1238
247  1269
248  1314
249  1282
250  1238
251  1212
252  1212
253  1184
254  1271
255  1222
256  1202
257  1129
258  1188
259  1151
260  1129
261  1138
262  1124
263  1148
264  1169
265  1109
266  1119
267  1099
268  1110
269  1105
270  1004
271  1103
272  1065
273  1073
274  1111
275  1111
276  1012
277  1040
278  1027
279  1031
280  999
281  1016
282  977
283  989
284  1025
285  988
286  974
287  962
288  982
289  983
290  992
291  924
292  941
293  925
294  984
295  943
296  923
297  985
298  964
299  968
300  915
301  911
302  928
303  953
304  922
305  911
306  954
307  957
308  910
309  933
310  880
311  929
312  903
313  887
314  955
315  899
316  894
317  938
318  945
319  951
320  879
321  950
322  918
323  918
324  896
325  895
326  836
327  911
328  915
329  855
330  822
331  885
332  846
333  883
334  847
335  879
336  856
337  830
338  918
339  883
340  840
341  897
342  830
343  843
344  879
345  845
346  844
347  866
348  864
349  876
350  802
351  847
352  871
353  821
354  800
355  807
356  879
357  832
358  851
359  891
360  818
361  808
362  814
363  882
364  830
365  835
366  786
367  852
368  825
369  838
370  862
371  822
372  805
373  881
374  819
375  871
376  799
377  811
378  807
379  824
380  812
381  845
382  830
383  874
384  822
385  817
386  822
387  803
388  750
389  741
390  794
391  820
392  870
393  838
394  792
395  738
396  801
397  822
398  789
399  826
400  810
401  837
402  761
403  784
404  787
405  804
406  770
407  774
408  776
409  760
410  775
411  764
412  769
413  799
414  779
415  805
416  745
417  781
418  822
419  756
420  755
421  736
422  781
423  729
424  766
425  738
426  726
427  791
428  732
429  724
430  700
431  688
432  669
433  702
434  694
435  746
436  651
437  695
438  711
439  708
440  677
441  727
442  705
443  694
444  639
445  664
446  645
447  657
448  664
449  666
450  630
451  655
452  692
453  634
454  646
455  644
456  616
457  623
458  651
459  626
460  584
461  652
462  624
463  676
464  613
465  608
466  579
467  653
468  576
469  579
470  649
471  673
472  584
473  587
474  653
475  621
476  611
477  633
478  561
479  576
480  586
481  580
482  576
483  591
484  634
485  532
486  558
487  606
488  645
489  588
490  552
491  516
492  605
493  607
494  577
495  573
496  596
497  541
498  575
499  563
500  574
501  568
502  575
503  598
504  560
505  574
506  602
507  585
508  566
509  606
510  596
511  558
512  587
513  606
514  558
515  583
516  561
517  595
518  536
519  556
520  585
521  549
522  577
523  590
524  551
525  555
526  553
527  568
528  537
529  589
530  544
531  574
532  568
533  571
534  559
535  604
536  582
537  529
538  568
539  530
540  555
541  549
542  601
543  567
544  562
545  546
546  580
547  594
548  523
549  565
550  527
551  565
552  544
553  518
554  554
555  602
556  541
557  577
558  527
559  549
560  565
561  557
562  576
563  514
564  547
565  533
566  517
567  523
568  542
569  539
570  567
571  505
572  537
573  600
574  535
575  519
576  541
577  549
578  582
579  551
580  542
581  534
582  571
583  532
584  545
585  531
586  531
587  544
588  566
589  516
590  529
591  538
592  561
593  530
594  545
595  523
596  546
597  534
598  567
599  568
600  534
601  508
602  558
603  552
604  543
605  549
606  533
607  517
608  541
609  511
610  531
611  548
612  547
613  520
614  546
615  507
616  495
617  551
618  534
619  533
620  567
621  505
622  532
623  541
624  535
625  553
626  588
627  550
628  572
629  549
630  560
631  570
632  546
633  549
634  584
635  551
636  544
637  509
638  537
639  525
640  566
641  584
642  590
643  601
644  557
645  583
646  578
647  577
648  551
649  579
650  553
651  551
652  541
653  602
654  590
655  555
656  591
657  567
658  530
659  531
660  553
661  561
662  628
663  598
664  575
665  561
666  591
667  590
668  558
669  634
670  603
671  590
672  586
673  592
674  578
675  567
676  596
677  576
678  574
679  610
680  564
681  579
682  612
683  576
684  567
685  618
686  609
687  634
688  593
689  564
690  556
691  567
692  581
693  588
694  617
695  565
696  563
697  626
698  584
699  591
700  525
701  572
702  594
703  561
704  547
705  583
706  575
707  537
708  570
709  588
710  536
711  518
712  545
713  504
714  510
715  588
716  550
717  514
718  545
719  520
720  505
721  526
722  485
723  492
724  518
725  477
726  475
727  452
728  466
729  467
730  465
731  479
732  439
733  429
734  405
735  410
736  426
737  405
738  392
739  395
740  400
741  403
742  424
743  431
744  403
745  417
746  394
747  385
748  394
749  366
750  346
751  342
752  346
753  362
754  326
755  327
756  331
757  343
758  319
759  312
760  344
761  336
762  322
763  272
764  295
765  320
766  323
767  294
768  302
769  267
770  285
771  298
772  251
773  278
774  278
775  255
776  274
777  247
778  266
779  256
780  279
781  258
782  246
783  263
784  237
785  238
786  246
787  245
788  235
789  221
790  246
791  221
792  223
793  244
794  221
795  219
796  244
797  238
798  219
799  211
800  206
801  187
802  228
803  216
804  238
805  207
806  222
807  214
808  196
809  203
810  214
811  198
812  189
813  192
814  200
815  212
816  181
817  189
818  208
819  175
820  199
821  168
822  186
823  191
824  195
825  179
826  192
827  217
828  187
829  185
830  182
831  189
832  199
833  179
834  172
835  167
836  188
837  201
838  177
839  176
840  170
841  194
842  175
843  198
844  175
845  159
846  193
847  201
848  179
849  199
850  164
851  176
852  171
853  194
854  177
855  170
856  180
857  184
858  198
859  178
860  175
861  185
862  162
863  182
864  179
865  185
866  180
867  159
868  180
869  165
870  164
871  210
872  154
873  207
874  164
875  134
876  184
877  168
878  191
879  160
880  175
881  159
882  197
883  159
884  172
885  168
886  155
887  171
888  177
889  164
890  178
891  182
892  161
893  166
894  172
895  159
896  160
897  178
898  181
899  170
900  174
901  172
902  156
903  156
904  160
905  156
906  153
907  144
908  159
909  151
910  136
911  133
912  172
913  150
914  161
915  145
916  157
917  165
918  141
919  148
920  150
921  145
922  140
923  145
924  153
925  145
926  136
927  137
928  142
929  150
930  151
931  141
932  135
933  145
934  144
935  156
936  143
937  126
938  124
939  134
940  133
941  137
942  131
943  134
944  142
945  138
946  145
947  141
948  142
949  162
950  120
951  155
952  154
953  131
954  129
955  155
956  126
957  141
958  127
959  153
960  130
961  157
962  141
963  136
964  134
965  153
966  148
967  154
968  123
969  131
970  115
971  143
972  134
973  124
974  129
975  147
976  130
977  123
978  150
979  124
980  129
981  128
982  136
983  135
984  109
985  135
986  128
987  138
988  130
989  120
990  136
991  147
992  115
993  115
994  108
995  130
996  133
997  118
998  153
999  116
1000  100
1001  131
1002  114
1003  124
1004  106
1005  138
1006  121
1007  125
1008  136
1009  132
1010  128
1011  130
1012  123
1013  113
1014  115
1015  126
1016  124
1017  109
1018  137
1019  122
1020  130
1021  120
1022  137
1023  130
1024  118
1025  142
1026  104
1027  121
1028  117
1029  128
1030  114
1031  129
1032  107
1033  121
1034  138
1035  149
1036  132
1037  133
1038  124
1039  130
1040  129
1041  122
1042  122
1043  133
1044  113
1045  100
1046  111
1047  126
1048  137
1049  129
1050  113
1051  137
1052  112
1053  116
1054  121
1055  125
1056  128
1057  116
1058  130
1059  120
1060  119
1061  108
1062  129
1063  127
1064  120
1065  110
1066  115
1067  122
1068  97
1069  105
1070  108
1071  112
1072  107
1073  109
1074  107
1075  113
1076  111
1077  109
1078  126
1079  103
1080  126
1081  110
1082  122
1083  116
1084  106
1085  111
1086  119
1087  103
1088  121
1089  104
1090  107
1091  91
1092  107
1093  119
1094  99
1095  102
1096  103
1097  113
1098  112
1099  120
1100  111
1101  101
1102  117
1103  137
1104  98
1105  105
1106  100
1107  114
1108  128
1109  104
1110  127
1111  113
1112  109
1113  102
1114  112
1115  104
1116  106
1117  106
1118  106
1119  124
1120  102
1121  122
1122  112
1123  113
1124  118
1125  120
1126  95
1127  116
1128  113
1129  116
1130  121
1131  97
1132  105
1133  109
1134  104
1135  93
1136  111
1137  93
1138  114
1139  108
1140  107
1141  121
1142  110
1143  106
1144  88
1145  97
1146  74
1147  104
1148  117
1149  92
1150  99
1151  100
1152  101
1153  107
1154  106
1155  115
1156  101
1157  97
1158  86
1159  98
1160  108
1161  91
1162  86
1163  110
1164  108
1165  91
1166  112
1167  79
1168  100
1169  97
1170  83
1171  95
1172  100
1173  78
1174  100
1175  83
1176  90
1177  114
1178  100
1179  94
1180  86
1181  98
1182  91
1183  91
1184  87
1185  84
1186  87
1187  94
1188  91
1189  85
1190  73
1191  84
1192  89
1193  86
1194  86
1195  78
1196  87
1197  87
1198  88
1199  72
1200  91
1201  93
1202  101
1203  92
1204  83
1205  87
1206  101
1207  73
1208  77
1209  81
1210  74
1211  88
1212  92
1213  89
1214  81
1215  70
1216  94
1217  91
1218  92
1219  72
1220  100
1221  87
1222  85
1223  92
1224  110
1225  73
1226  88
1227  89
1228  93
1229  86
1230  74
1231  74
1232  88
1233  96
1234  95
1235  71
1236  78
1237  93
1238  91
1239  69
1240  83
1241  78
1242  88
1243  89
1244  76
1245  81
1246  76
1247  96
1248  79
1249  82
1250  80
1251  57
1252  83
1253  76
1254  98
1255  91
1256  100
1257  97
1258  75
1259  102
1260  83
1261  68
1262  81
1263  90
1264  75
1265  94
1266  78
1267  89
1268  88
1269  91
1270  80
1271  84
1272  84
1273  84
1274  99
1275  82
1276  83
1277  78
1278  89
1279  73
1280  68
1281  77
1282  78
1283  61
1284  78
1285  67
1286  85
1287  71
1288  78
1289  72
1290  93
1291  74
1292  81
1293  65
1294  78
1295  85
1296  81
1297  68
1298  76
1299  87
1300  61
1301  69
1302  83
1303  82
1304  64
1305  85
1306  73
1307  85
1308  68
1309  63
1310  73
1311  76
1312  82
1313  65
1314  76
1315  65
1316  80
1317  71
1318  65
1319  81
1320  78
1321  70
1322  88
1323  64
1324  75
1325  71
1326  72
1327  66
1328  68
1329  69
1330  74
1331  84
1332  80
1333  63
1334  79
1335  73
1336  73
1337  61
1338  70
1339  66
1340  87
1341  65
1342  82
1343  70
1344  78
1345  76
1346  60
1347  80
1348  63
1349  64
1350  70
1351  66
1352  54
1353  62
1354  81
1355  68
1356  82
1357  65
1358  75
1359  71
1360  80
1361  70
1362  69
1363  65
1364  75
1365  74
1366  72
1367  51
1368  76
1369  72
1370  66
1371  56
1372  69
1373  80
1374  60
1375  85
1376  75
1377  75
1378  69
1379  75
1380  78
1381  74
1382  71
1383  63
1384  82
1385  68
1386  78
1387  82
1388  70
1389  79
1390  82
1391  71
1392  85
1393  62
1394  78
1395  75
1396  68
1397  68
1398  41
1399  63
1400  71
1401  73
1402  71
1403  60
1404  60
1405  71
1406  69
1407  71
1408  68
1409  62
1410  80
1411  55
1412  54
1413  76
1414  66
1415  60
1416  74
1417  52
1418  66
1419  61
1420  58
1421  62
1422  63
1423  67
1424  37
1425  79
1426  58
1427  74
1428  68
1429  58
1430  61
1431  59
1432  58
1433  57
1434  67
1435  49
1436  75
1437  45
1438  62
1439  61
1440  56
1441  41
1442  61
1443  79
1444  73
1445  57
1446  56
1447  65
1448  65
1449  66
1450  54
1451  62
1452  55
1453  74
1454  74
1455  61
1456  51
1457  52
1458  59
1459  76
1460  60
1461  60
1462  69
1463  55
1464  58
1465  53
1466  50
1467  61
1468  58
1469  56
1470  56
1471  69
1472  51
1473  60
1474  57
1475  46
1476  52
1477  57
1478  64
1479  53
1480  45
1481  72
1482  66
1483  52
1484  56
1485  56
1486  56
1487  54
1488  52
1489  69
1490  59
1491  73
1492  64
1493  69
1494  52
1495  56
1496  56
1497  55
1498  55
1499  53
1500  65
1501  57
1502  41
1503  50
1504  75
1505  59
1506  53
1507  51
1508  59
1509  51
1510  67
1511  49
1512  51
1513  56
1514  65
1515  53
1516  60
1517  51
1518  56
1519  62
1520  61
1521  63
1522  43
1523  54
1524  64
1525  68
1526  40
1527  53
1528  63
1529  53
1530  45
1531  54
1532  63
1533  75
1534  60
1535  49
1536  51
1537  65
1538  63
1539  57
1540  65
1541  54
1542  45
1543  52
1544  57
1545  54
1546  49
1547  62
1548  45
1549  52
1550  45
1551  56
1552  54
1553  58
1554  67
1555  58
1556  51
1557  51
1558  50
1559  56
1560  49
1561  46
1562  51
1563  67
1564  55
1565  56
1566  56
1567  66
1568  62
1569  61
1570  61
1571  63
1572  56
1573  45
1574  65
1575  51
1576  71
1577  51
1578  42
1579  43
1580  60
1581  47
1582  62
1583  66
1584  43
1585  50
1586  38
1587  61
1588  68
1589  37
1590  45
1591  62
1592  54
1593  53
1594  47
1595  47
1596  69
1597  58
1598  45
1599  53
1600  47
1601  44
1602  49
1603  42
1604  60
1605  43
1606  74
1607  56
1608  51
1609  54
1610  59
1611  53
1612  58
1613  54
1614  37
1615  46
1616  56
1617  40
1618  39
1619  45
1620  55
1621  52
1622  53
1623  36
1624  51
1625  49
1626  40
1627  42
1628  48
1629  43
1630  67
1631  50
1632  41
1633  41
1634  56
1635  53
1636  56
1637  58
1638  43
1639  64
1640  44
1641  48
1642  48
1643  51
1644  51
1645  40
1646  51
1647  46
1648  52
1649  43
1650  71
1651  46
1652  41
1653  50
1654  46
1655  38
1656  54
1657  55
1658  43
1659  40
1660  40
1661  41
1662  64
1663  52
1664  61
1665  40
1666  58
1667  37
1668  43
1669  63
1670  56
1671  42
1672  40
1673  52
1674  39
1675  58
1676  39
1677  46
1678  53
1679  44
1680  44
1681  45
1682  55
1683  44
1684  39
1685  58
1686  49
1687  44
1688  36
1689  39
1690  48
1691  40
1692  54
1693  49
1694  38
1695  40
1696  39
1697  36
1698  44
1699  38
1700  55
1701  38
1702  52
1703  39
1704  38
1705  47
1706  46
1707  41
1708  52
1709  30
1710  45
1711  42
1712  38
1713  36
1714  45
1715  39
1716  29
1717  44
1718  43
1719  52
1720  53
1721  50
1722  46
1723  43
1724  57
1725  48
1726  44
1727  44
1728  37
1729  42
1730  32
1731  39
1732  34
1733  40
1734  41
1735  33
1736  41
1737  47
1738  43
1739  33
1740  46
1741  45
1742  38
1743  46
1744  35
1745  44
1746  33
1747  52
1748  29
1749  40
1750  45
1751  42
1752  55
1753  35
1754  35
1755  47
1756  55
1757  40
1758  33
1759  39
1760  33
1761  39
1762  39
1763  38
1764  33
1765  47
1766  36
1767  36
1768  42
1769  43
1770  39
1771  30
1772  35
1773  40
1774  41
1775  49
1776  45
1777  40
1778  46
1779  34
1780  42
1781  45
1782  41
1783  42
1784  35
1785  44
1786  41
1787  42
1788  26
1789  40
1790  34
1791  30
1792  42
1793  42
1794  41
1795  38
1796  32
1797  46
1798  37
1799  25
1800  44
1801  28
1802  26
1803  42
1804  30
1805  34
1806  31
1807  44
1808  42
1809  42
1810  31
1811  39
1812  47
1813  21
1814  42
1815  38
1816  34
1817  43
1818  29
1819  35
1820  30
1821  39
1822  37
1823  30
1824  39
1825  33
1826  33
1827  31
1828  35
1829  33
1830  26
1831  44
1832  39
1833  39
1834  32
1835  31
1836  31
1837  31
1838  26
1839  32
1840  29
1841  25
1842  22
1843  29
1844  36
1845  25
1846  33
1847  32
1848  32
1849  22
1850  27
1851  33
1852  34
1853  27
1854  34
1855  35
1856  37
1857  37
1858  31
1859  28
1860  37
1861  35
1862  34
1863  29
1864  32
1865  24
1866  32
1867  28
1868  27
1869  34
1870  22
1871  38
1872  29
1873  30
1874  27
1875  34
1876  37
1877  19
1878  31
1879  31
1880  26
1881  47
1882  30
1883  36
1884  23
1885  28
1886  31
1887  29
1888  29
1889  38
1890  25
1891  30
1892  33
1893  27
1894  29
1895  23
1896  26
1897  26
1898  36
1899  25
1900  28
1901  23
1902  16
1903  20
1904  20
1905  22
1906  24
1907  25
1908  23
1909  28
1910  26
1911  20
1912  27
1913  24
1914  19
1915  25
1916  27
1917  29
1918  26
1919  20
1920  22
1921  16
1922  29
1923  19
1924  27
1925  32
1926  17
1927  25
1928  31
1929  25
1930  22
1931  17
1932  40
1933  25
1934  32
1935  29
1936  22
1937  15
1938  25
1939  31
1940  31
1941  19
1942  30
1943  21
1944  17
1945  26
1946  27
1947  24
1948  26
1949  29
1950  31
1951  30
1952  26
1953  26
1954  22
1955  27
1956  24
1957  21
1958  28
1959  18
1960  14
1961  26
1962  20
1963  25
1964  26
1965  24
1966  14
1967  24
1968  28
1969  25
1970  18
1971  20
1972  22
1973  29
1974  23
1975  25
1976  14
1977  23
1978  25
1979  26
1980  21
1981  18
1982  26
1983  24
1984  30
1985  28
1986  23
1987  24
1988  18
1989  15
1990  20
1991  22
1992  23
1993  13
1994  22
1995  19
1996  18
1997  18
1998  21
1999  16
2000  15
2001  17
2002  17
2003  15
2004  21
2005  18
2006  18
2007  18
2008  16
2009  22
2010  16
2011  23
2012  18
2013  16
2014  26
2015  19
2016  33
2017  17
2018  20
2019  16
2020  15
2021  22
2022  16
2023  16
2024  15
2025  26
2026  21
2027  16
2028  15
2029  27
2030  25
2031  22
2032  16
2033  22
2034  27
2035  17
2036  17
2037  16
2038  15
2039  13
2040  18
2041  24
2042  21
2043  20
2044  19
2045  23
2046  14
2047  9
2048  22
2049  15
2050  27
2051  16
2052  17
2053  26
2054  16
2055  15
2056  16
2057  13
2058  20
2059  19
2060  17
2061  22
2062  21
2063  12
2064  21
2065  22
2066  24
2067  16
2068  19
2069  18
2070  20
2071  16
2072  15
2073  17
2074  18
2075  16
2076  14
2077  14
2078  13
2079  19
2080  21
2081  21
2082  19
2083  21
2084  13
2085  17
2086  16
2087  15
2088  16
2089  15
2090  21
2091  17
2092  8
2093  13
2094  10
2095  13
2096  14
2097  14
2098  16
2099  19
2100  15
2101  8
2102  20
2103  17
2104  13
2105  18
2106  12
2107  16
2108  11
2109  15
2110  15
2111  12
2112  13
2113  21
2114  20
2115  22
2116  15
2117  19
2118  17
2119  17
2120  17
2121  16
2122  10
2123  14
2124  15
2125  16
2126  14
2127  14
2128  15
2129  22
2130  12
2131  19
2132  11
2133  9
2134  23
2135  13
2136  16
2137  18
2138  11
2139  17
2140  21
2141  17
2142  13
2143  16
2144  17
2145  14
2146  17
2147  12
2148  10
2149  15
2150  18
2151  25
2152  8
2153  19
2154  19
2155  15
2156  24
2157  18
2158  14
2159  15
2160  22
2161  16
2162  15
2163  13
2164  21
2165  16
2166  13
2167  10
2168  13
2169  20
2170  12
2171  15
2172  13
2173  14
2174  18
2175  14
2176  14
2177  14
2178  8
2179  20
2180  13
2181  10
2182  13
2183  14
2184  16
2185  11
2186  13
2187  20
2188  14
2189  12
2190  8
2191  20
2192  11
2193  10
2194  13
2195  10
2196  10
2197  8
2198  16
2199  16
2200  10
2201  17
2202  11
2203  13
2204  14
2205  11
2206  16
2207  14
2208  8
2209  8
2210  13
2211  8
2212  15
2213  13
2214  13
2215  13
2216  10
2217  10
2218  13
2219  11
2220  14
2221  11
2222  12
2223  15
2224  14
2225  11
2226  14
2227  16
2228  12
2229  11
2230  13
2231  17
2232  17
2233  14
2234  12
2235  8
2236  20
2237  10
2238  7
2239  7
2240  11
2241  13
2242  13
2243  11
2244  14
2245  7
2246  7
2247  6
2248  9
2249  17
2250  11
2251  11
2252  8
2253  16
2254  3
2255  13
2256  10
2257  10
2258  9
2259  13
2260  8
2261  19
2262  8
2263  12
2264  15
2265  12
2266  16
2267  7
2268  7
2269  11
2270  11
2271  6
2272  11
2273  12
2274  16
2275  18
2276  4
2277  12
2278  6
2279  8
2280  8
2281  4
2282  13
2283  8
2284  9
2285  10
2286  5
2287  10
2288  9
2289  5
2290  9
2291  6
2292  10
2293  9
2294  10
2295  14
2296  12
2297  13
2298  7
2299  9
2300  7
2301  6
2302  11
2303  9
2304  17
2305  11
2306  11
2307  10
2308  9
2309  8
2310  16
2311  8
2312  7
2313  9
2314  14
2315  14
2316  10
2317  12
2318  8
2319  13
2320  10
2321  4
2322  9
2323  5
2324  11
2325  9
2326  14
2327  10
2328  16
2329  7
2330  13
2331  11
2332  12
2333  12
2334  2
2335  13
2336  13
2337  5
2338  9
2339  8
2340  11
2341  9
2342  11
2343  14
2344  9
2345  8
2346  6
2347  11
2348  7
2349  9
2350  5
2351  7
2352  8
2353  9
2354  10
2355  6
2356  8
2357  8
2358  6
2359  6
2360  5
2361  7
2362  7
2363  10
2364  12
2365  7
2366  12
2367  8
2368  12
2369  14
2370  7
2371  4
2372  17
2373  7
2374  12
2375  12
2376  10
2377  6
2378  5
2379  8
2380  7
2381  8
2382  5
2383  10
2384  10
2385  10
2386  10
2387  8
2388  9
2389  7
2390  10
2391  11
2392  11
2393  7
2394  4
2395  13
2396  9
2397  13
2398  9
2399  8
2400  8
2401  9
2402  11
2403  10
2404  4
2405  9
2406  4
2407  6
2408  9
2409  5
2410  7
2411  4
2412  5
2413  6
2414  5
2415  12
2416  5
2417  9
2418  5
2419  5
2420  7
2421  4
2422  8
2423  11
2424  7
2425  6
2426  8
2427  5
2428  4
2429  5
2430  2
2431  6
2432  3
2433  9
2434  3
2435  5
2436  9
2437  4
2438  6
2439  5
2440  8
2441  12
2442  8
2443  10
2444  14
2445  11
2446  8
2447  6
2448  10
2449  11
2450  4
2451  9
2452  6
2453  9
2454  4
2455  9
2456  9
2457  10
2458  7
2459  7
2460  3
2461  9
2462  6
2463  5
2464  4
2465  5
2466  8
2467  9
2468  7
2469  7
2470  5
2471  4
2472  5
2473  3
2474  10
2475  8
2476  4
2477  10
2478  7
2479  6
2480  4
2481  4
2482  4
2483  6
2484  2
2485  5
2486  7
2487  3
2488  5
2489  9
2490  5
2491  1
2492  7
2493  5
2494  7
2495  4
2496  9
2497  5
2498  7
2499  3
2500  12
2501  3
2502  1
2503  14
2504  1
2505  3
2506  4
2507  3
2508  5
2509  5
2510  8
2511  8
2512  6
2513  4
2514  6
2515  10
2516  6
2517  5
2518  5
2519  4
2520  5
2521  6
2522  3
2523  2
2524  6
2525  5
2526  4
2527  4
2528  6
2529  8
2530  9
2531  6
2532  4
2533  5
2534  4
2535  5
2536  4
2537  3
2538  4
2539  4
2540  5
2541  3
2542  3
2543  2
2544  6
2545  2
2546  11
2547  6
2548  1
2549  7
2550  9
2551  2
2552  4
2553  4
2554  6
2555  5
2556  3
2557  3
2558  5
2559  4
2560  4
2561  5
2562  7
2563  6
2564  7
2565  3
2566  5
2567  4
2568  7
2569  3
2570  4
2571  2
2572  6
2573  10
2574  4
2575  5
2576  3
2577  2
2578  4
2579  4
2580  1
2581  7
2582  4
2583  3
2584  4
2585  4
2586  5
2587  3
2588  2
2589  4
2590  5
2591  5
2592  7
2593  1
2594  4
2595  4
2596  3
2597  3
2598  3
2599  2
2600  3
2601  2
2602  4
2603  3
2604  0
2605  5
2606  4
2607  2
2608  2
2609  5
2610  4
2611  5
2612  2
2613  3
2614  4
2615  2
2616  3
2617  1
2618  2
2619  1
2620  2
2621  3
2622  3
2623  8
2624  6
2625  1
2626  4
2627  2
2628  6
2629  3
2630  4
2631  4
2632  3
2633  1
2634  3
2635  6
2636  1
2637  2
2638  3
2639  4
2640  1
2641  3
2642  3
2643  5
2644  6
2645  5
2646  0
2647  4
2648  1
2649  4
2650  3
2651  3
2652  2
2653  2
2654  3
2655  2
2656  2
2657  2
2658  1
2659  2
2660  3
2661  2
2662  3
2663  6
2664  2
2665  1
2666  4
2667  5
2668  6
2669  3
2670  4
2671  2
2672  3
2673  7
2674  2
2675  4
2676  2
2677  5
2678  2
2679  1
2680  0
2681  3
2682  4
2683  0
2684  4
2685  0
2686  3
2687  1
2688  3
2689  1
2690  3
2691  0
2692  0
2693  5
2694  2
2695  5
2696  3
2697  0
2698  0
2699  4
2700  2
2701  3
2702  3
2703  1
2704  0
2705  3
2706  1
2707  2
2708  2
2709  0
2710  3
2711  1
2712  0
2713  1
2714  2
2715  2
2716  1
2717  6
2718  5
2719  3
2720  3
2721  0
2722  1
2723  3
2724  0
2725  2
2726  5
2727  2
2728  2
2729  3
2730  1
2731  2
2732  1
2733  2
2734  1
2735  1
2736  2
2737  2
2738  2
2739  3
2740  2
2741  2
2742  3
2743  2
2744  1
2745  0
2746  3
2747  1
2748  3
2749  0
2750  0
2751  2
2752  2
2753  2
2754  0
2755  1
2756  1
2757  2
2758  1
2759  3
2760  1
2761  2
2762  2
2763  1
2764  3
2765  3
2766  3
2767  0
2768  2
2769  1
2770  2
2771  3
2772  0
2773  1
2774  0
2775  0
2776  0
2777  5
2778  3
2779  1
2780  1
2781  0
2782  0
2783  1
2784  1
2785  0
2786  1
2787  1
2788  3
2789  3
2790  3
2791  0
2792  1
2793  0
2794  1
2795  1
2796  3
2797  1
2798  2
2799  2
2800  1
2801  1
2802  1
2803  1
2804  2
2805  2
2806  2
2807  1
2808  1
2809  2
2810  1
2811  0
2812  0
2813  3
2814  4
2815  0
2816  2
2817  2
2818  1
2819  0
2820  1
2821  0
2822  1
2823  1
2824  0
2825  3
2826  1
2827  0
2828  0
2829  2
2830  0
2831  3
2832  1
2833  1
2834  0
2835  2
2836  4
2837  1
2838  4
2839  2
2840  3
2841  1
2842  3
2843  1
2844  0
2845  1
2846  3
2847  0
2848  1
2849  1
2850  1
2851  2
2852  1
2853  2
2854  4
2855  0
2856  4
2857  0
2858  0
2859  1
2860  1
2861  1
2862  2
2863  2
2864  0
2865  1
2866  1
2867  3
2868  4
2869  2
2870  2
2871  0
2872  0
2873  3
2874  0
2875  0
2876  3
2877  2
2878  3
2879  3
2880  2
2881  1
2882  1
2883  3
2884  1
2885  1
2886  1
2887  2
2888  0
2889  1
2890  1
2891  2
2892  2
2893  1
2894  1
2895  2
2896  1
2897  1
2898  2
2899  2
2900  3
2901  3
2902  3
2903  1
2904  1
2905  1
2906  1
2907  2
2908  1
2909  1
2910  0
2911  2
2912  1
2913  1
2914  0
2915  0
2916  5
2917  0
2918  2
2919  1
2920  0
2921  4
2922  2
2923  0
2924  0
2925  0
2926  0
2927  2
2928  1
2929  2
2930  2
2931  0
2932  2
2933  3
2934  0
2935  1
2936  1
2937  0
2938  1
2939  0
2940  1
2941  2
2942  0
2943  0
2944  0
2945  2
2946  0
2947  1
2948  1
2949  0
2950  2
2951  3
2952  1
2953  0
2954  1
2955  0
2956  0
2957  3
2958  1
2959  2
2960  0
2961  3
2962  1
2963  0
2964  0
2965  0
2966  2
2967  1
2968  2
2969  0
2970  5
2971  1
2972  1
2973  1
2974  0
2975  3
2976  0
2977  1
2978  0
2979  1
2980  0
2981  2
2982  1
2983  1
2984  1
2985  2
2986  0
2987  2
2988  1
2989  1
2990  1
2991  5
2992  0
2993  2
2994  1
2995  3
2996  0
2997  0
2998  2
2999  2
3000  1
3001  1
3002  1
3003  0
3004  2
3005  2
3006  2
3007  0
3008  3
3009  0
3010  2
3011  1
3012  2
3013  2
3014  0
3015  0
3016  0
3017  0
3018  1
3019  1
3020  1
3021  0
3022  1
3023  0
3024  1
3025  1
3026  1
3027  2
3028  0
3029  0
3030  0
3031  1
3032  2
3033  0
3034  0
3035  0
3036  0
3037  1
3038  1
3039  1
3040  1
3041  0
3042  2
3043  0
3044  0
3045  1
3046  1
3047  1
3048  0
3049  0
3050  1
3051  0
3052  0
3053  0
3054  0
3055  0
3056  1
3057  3
3058  1
3059  1
3060  0
3061  1
3062  0
3063  0
3064  0
3065  0
3066  1
3067  2
3068  2
3069  0
3070  2
3071  0
3072  0
3073  0
3074  1
3075  0
3076  0
3077  0
3078  0
3079  1
3080  0
3081  3
3082  0
3083  0
3084  1
3085  0
3086  0
3087  0
3088  1
3089  3
3090  0
3091  2
3092  1
3093  0
3094  0
3095  1
3096  2
3097  0
3098  0
3099  1
3100  1
3101  1
3102  0
3103  0
3104  0
3105  1
3106  2
3107  1
3108  1
3109  0
3110  1
3111  1
3112  1
3113  1
3114  0
3115  1
3116  0
3117  0
3118  0
3119  0
3120  1
3121  1
3122  1
3123  0
3124  0
3125  2
3126  0
3127  0
3128  0
3129  1
3130  0
3131  1
3132  0
3133  0
3134  0
3135  0
3136  0
3137  1
3138  0
3139  0
3140  0
3141  1
3142  1
3143  0
3144  0
3145  0
3146  0
3147  0
3148  0
3149  0
3150  0
3151  0
3152  0
3153  0
3154  0
3155  2
3156  0
3157  0
3158  1
3159  0
3160  1
3161  0
3162  0
3163  1
3164  0
3165  0
3166  0
3167  0
3168  0
3169  1
3170  3
3171  2
3172  1
3173  1
3174  0
3175  0
3176  0
3177  0
3178  1
3179  0
3180  1
3181  1
3182  0
3183  1
3184  1
3185  1
3186  0
3187  0
3188  0
3189  1
3190  0
3191  0
3192  1
3193  0
3194  0
3195  0
3196  0
3197  2
3198  0
3199  0
3200  0
3201  0
3202  2
3203  1
3204  1
3205  1
3206  0
3207  0
3208  0
3209  0
3210  1
3211  0
3212  0
3213  1
3214  0
3215  2
3216  1
3217  0
3218  0
3219  0
3220  0
3221  1
3222  0
3223  0
3224  1
3225  1
3226  0
3227  0
3228  0
3229  0
3230  1
3231  0
3232  1
3233  1
3234  1
3235  1
3236  0
3237  1
3238  0
3239  0
3240  0
3241  0
3242  0
3243  0
3244  1
3245  0
3246  0
3247  1
3248  0
3249  0
3250  1
3251  0
3252  0
3253  0
3254  0
3255  1
3256  1
3257  0
3258  0
3259  0
3260  0
3261  1
3262  0
3263  0
3264  1
3265  0
3266  0
3267  0
3268  0
3269  1
3270  0
3271  0
3272  0
3273  0
3274  0
3275  0
3276  0
3277  0
3278  1
3279  0
3280  0
3281  0
3282  0
3283  0
3284  0
3285  0
3286  0
3287  0
3288  0
3289  0
3290  0
3291  0
3292  1
3293  0
3294  0
3295  0
3296  0
3297  0
3298  0
3299  1
3300  0
3301  0
3302  0
3303  0
3304  0
3305  0
3306  0
3307  0
3308  0
3309  0
3310  0
3311  1
3312  0
3313  0
3314  0
3315  0
3316  0
3317  0
3318  2
3319  0
3320  0
3321  0
3322  0
3323  0
3324  0
3325  1
3326  0
3327  0
3328  0
3329  1
3330  0
3331  0
3332  0
3333  0
3334  0
3335  0
3336  0
3337  0
3338  0
3339  0
3340  0
3341  0
3342  0
3343  0
3344  0
3345  0
3346  1
3347  0
3348  0
3349  0
3350  0
3351  0
3352  0
3353  0
3354  0
3355  0
3356  0
3357  1
3358  0
3359  0
3360  0
3361  1
3362  0
3363  0
3364  0
3365  0
3366  0
3367  0
3368  0
3369  0
3370  0
3371  0
3372  0
3373  0
3374  0
3375  0
3376  0
3377  0
3378  0
3379  0
3380  0
3381  0
3382  1
3383  0
3384  0
3385  1
3386  0
3387  0
3388  0
3389  0
3390  1
3391  0
3392  0
3393  0
3394  0
3395  1
3396  0
3397  0
3398  0
3399  1
3400  0
3401  0
3402  0
3403  0
3404  0
3405  0
3406  0
3407  0
3408  0
3409  0
3410  0
3411  0
3412  0
3413  0
3414  0
3415  0
3416  0
3417  0
3418  1
3419  0
3420  0
3421  1
3422  0
3423  0
3424  0
3425  0
3426  0
3427  0
3428  0
3429  0
3430  0
3431  1
3432  0
3433  0
3434  0
3435  0
3436  0
3437  0
3438  0
3439  1
3440  0
3441  0
3442  0
3443  0
3444  0
3445  0
3446  0
3447  0
3448  0
3449  0
3450  0
3451  0
3452  0
3453  0
3454  0
3455  0
3456  0
3457  0
3458  0
3459  0
3460  0
3461  0
3462  0
3463  0
3464  0
3465  0
3466  0
3467  0
3468  1
3469  0
3470  0
3471  0
3472  0
3473  2
3474  0
3475  0
3476  1
3477  0
3478  0
3479  0
3480  0
3481  0
3482  1
3483  0
3484  0
3485  0
3486  1
3487  0
3488  1
3489  2
3490  1
3491  0
3492  0
3493  0
3494  2
3495  2
3496  0
3497  0
3498  0
3499  0
3500  0
3501  0
3502  0
3503  0
3504  0
3505  0
3506  0
3507  0
3508  0
3509  0
3510  0
3511  0
3512  0
3513  0
3514  0
3515  0
3516  0
3517  0
3518  0
3519  0
3520  0
3521  0
3522  0
3523  0
3524  0
3525  0
3526  0
3527  0
3528  0
3529  0
3530  0
3531  0
3532  0
3533  0
3534  0
3535  0
3536  0
3537  0
3538  0
3539  0
3540  0
3541  0
3542  0
3543  0
3544  0
3545  1
3546  0
3547  0
3548  0
3549  0
3550  0
3551  0
3552  0
3553  0
3554  0
3555  0
3556  0
3557  0
3558  0
3559  1
3560  0
3561  1
3562  0
3563  0
3564  0
3565  0
3566  0
3567  0
3568  0
3569  0
3570  0
3571  1
3572  0
3573  0
3574  0
3575  0
3576  1
3577  0
3578  0
3579  0
3580  0
3581  0
3582  0
3583  0
3584  0
3585  0
3586  0
3587  0
3588  1
3589  1
3590  0
3591  1
3592  0
3593  1
3594  0
3595  2
3596  0
3597  2
3598  0
3599  0
3600  0
3601  0
3602  0
3603  0
3604  0
3605  0
3606  0
3607  0
3608  0
3609  0
3610  0
3611  0
3612  0
3613  0
3614  0
3615  0
3616  0
3617  0
3618  0
3619  0
3620  0
3621  0
3622  0
3623  0
3624  0
3625  0
3626  0
3627  0
3628  0
3629  0
3630  0
3631  0
3632  0
3633  0
3634  0
3635  0
3636  0
3637  0
3638  0
3639  0
3640  0
3641  0
3642  0
3643  0
3644  0
3645  0
3646  0
3647  0
3648  0
3649  0
3650  0
3651  0
3652  0
3653  0
3654  0
3655  0
3656  0
3657  0
3658  0
3659  0
3660  0
3661  0
3662  0
3663  0
3664  0
3665  0
3666  0
3667  0
3668  0
3669  0
3670  0
3671  0
3672  0
3673  0
3674  0
3675  0
3676  0
3677  0
3678  0
3679  0
3680  0
3681  0
3682  0
3683  0
3684  0
3685  0
3686  0
3687  0
3688  0
3689  0
3690  0
3691  0
3692  0
3693  0
3694  0
3695  0
3696  0
3697  0
3698  0
3699  0
3700  0
3701  0
3702  0
3703  0
3704  0
3705  0
3706  0
3707  0
3708  0
3709  0
3710  0
3711  0
3712  0
3713  0
3714  0
3715  0
3716  0
3717  0
3718  0
3719  0
3720  0
3721  0
3722  0
3723  0
3724  0
3725  0
3726  0
3727  0
3728  0
3729  0
3730  0
3731  0
3732  0
3733  0
3734  0
3735  0
3736  0
3737  0
3738  0
3739  0
3740  0
3741  0
3742  0
3743  0
3744  0
3745  0
3746  0
3747  0
3748  0
3749  0
3750  0
3751  0
3752  0
3753  0
3754  0
3755  0
3756  0
3757  0
3758  0
3759  0
3760  0
3761  0
3762  0
3763  0
3764  0
3765  0
3766  0
3767  0
3768  0
3769  0
3770  0
3771  0
3772  0
3773  0
3774  0
3775  0
3776  0
3777  0
3778  0
3779  0
3780  0
3781  0
3782  0
3783  0
3784  0
3785  0
3786  0
3787  0
3788  0
3789  0
3790  0
3791  0
3792  0
3793  0
3794  0
3795  0
3796  0
3797  0
3798  0
3799  0
3800  0
3801  0
3802  0
3803  0
3804  0
3805  0
3806  0
3807  0
3808  0
3809  0
3810  0
3811  0
3812  0
3813  0
3814  0
3815  0
3816  0
3817  0
3818  0
3819  0
3820  0
3821  0
3822  0
3823  0
3824  0
3825  0
3826  0
3827  0
3828  0
3829  0
3830  0
3831  0
3832  0
3833  0
3834  0
3835  0
3836  0
3837  0
3838  0
3839  0
3840  0
3841  0
3842  0
3843  0
3844  0
3845  0
3846  0
3847  0
3848  0
3849  0
3850  0
3851  0
3852  0
3853  0
3854  0
3855  0
3856  0
3857  0
3858  0
3859  0
3860  0
3861  0
3862  0
3863  0
3864  0
3865  0
3866  0
3867  0
3868  0
3869  0
3870  0
3871  0
3872  0
3873  0
3874  0
3875  0
3876  0
3877  0
3878  0
3879  0
3880  0
3881  0
3882  0
3883  0
3884  0
3885  0
3886  0
3887  0
3888  0
3889  0
3890  0
3891  0
3892  0
3893  0
3894  0
3895  0
3896  0
3897  0
3898  0
3899  0
3900  0
3901  0
3902  0
3903  0
3904  0
3905  0
3906  0
3907  0
3908  0
3909  0
3910  0
3911  0
3912  0
3913  0
3914  0
3915  0
3916  0
3917  0
3918  0
3919  0
3920  0
3921  0
3922  0
3923  0
3924  0
3925  0
3926  0
3927  0
3928  0
3929  0
3930  0
3931  0
3932  0
3933  0
3934  0
3935  0
3936  0
3937  0
3938  0
3939  0
3940  0
3941  0
3942  0
3943  0
3944  0
3945  0
3946  0
3947  0
3948  0
3949  0
3950  0
3951  0
3952  0
3953  0
3954  0
3955  0
3956  0
3957  0
3958  0
3959  0
3960  0
3961  0
3962  0
3963  0
3964  0
3965  0
3966  0
3967  0
3968  0
3969  0
3970  0
3971  0
3972  0
3973  0
3974  0
3975  0
3976  0
3977  0
3978  0
3979  0
3980  0
3981  0
3982  0
3983  0
3984  0
3985  0
3986  0
3987  0
3988  0
3989  0
3990  0
3991  0
3992  0
3993  0
3994  0
3995  0
3996  0
3997  0
3998  0
3999  0
4000  0
4001  0
4002  0
4003  0
4004  0
4005  0
4006  0
4007  0
4008  0
4009  0
4010  0
4011  0
4012  0
4013  0
4014  0
4015  0
4016  0
4017  0
4018  0
4019  0
4020  0
4021  0
4022  0
4023  0
4024  0
4025  0
4026  0
4027  0
4028  0
4029  0
4030  0
4031  0
4032  0
4033  0
4034  0
4035  0
4036  0
4037  0
4038  0
4039  0
4040  0
4041  0
4042  0
4043  0
4044  0
4045  0
4046  0
4047  0
4048  0
4049  0
4050  0
4051  0
4052  0
4053  0
4054  0
4055  0
4056  0
4057  0
4058  0
4059  0
4060  0
4061  0
4062  0
4063  0
4064  0
4065  0
4066  0
4067  0
4068  0
4069  0
4070  0
4071  0
4072  0
4073  0
4074  0
4075  0
4076  0
4077  0
4078  0
4079  0
4080  0
4081  0
4082  0
4083  0
4084  0
4085  0
4086  0
4087  0
4088  0
4089  0
4090  0
4091  0
4092  0
4093  0
4094  0
4095  0
