0  0
1  0
2  0
3  0
4  0
5  0
6  0
7  0
8  0
9  0
10  0
11  0
12  0
13  0
14  0
15  0
16  0
17  0
18  0
19  0
20  0
21  0
22  0
23  0
24  0
25  0
26  0
27  0
28  0
29  0
30  0
31  0
32  0
33  0
34  0
35  0
36  0
37  0
38  0
39  0
40  0
41  0
42  0
43  0
44  0
45  0
46  0
47  0
48  0
49  0
50  0
51  0
52  0
53  0
54  0
55  0
56  0
57  0
58  0
59  0
60  0
61  0
62  0
63  0
64  0
65  0
66  0
67  0
68  0
69  0
70  0
71  0
72  0
73  0
74  0
75  0
76  0
77  0
78  0
79  0
80  0
81  0
82  0
83  0
84  0
85  0
86  0
87  0
88  0
89  0
90  0
91  0
92  0
93  0
94  0
95  0
96  0
97  0
98  0
99  0
100  0
101  0
102  0
103  0
104  0
105  0
106  0
107  0
108  0
109  0
110  0
111  0
112  0
113  0
114  0
115  0
116  0
117  0
118  0
119  0
120  0
121  0
122  0
123  0
124  0
125  0
126  0
127  0
128  0
129  0
130  0
131  0
132  0
133  0
134  0
135  0
136  0
137  0
138  0
139  0
140  0
141  0
142  0
143  0
144  0
145  0
146  0
147  0
148  0
149  0
150  0
151  0
152  0
153  0
154  0
155  0
156  0
157  0
158  0
159  0
160  0
161  0
162  0
163  0
164  0
165  0
166  0
167  0
168  0
169  0
170  0
171  0
172  0
173  0
174  0
175  0
176  0
177  0
178  0
179  0
180  0
181  0
182  0
183  0
184  0
185  0
186  0
187  0
188  0
189  0
190  0
191  0
192  0
193  0
194  0
195  0
196  0
197  0
198  0
199  0
200  0
201  0
202  0
203  0
204  0
205  0
206  0
207  0
208  0
209  0
210  0
211  0
212  0
213  0
214  0
215  0
216  0
217  0
218  0
219  0
220  0
221  0
222  0
223  0
224  0
225  0
226  0
227  0
228  0
229  0
230  0
231  0
232  0
233  0
234  0
235  0
236  0
237  0
238  0
239  0
240  0
241  0
242  0
243  0
244  0
245  0
246  0
247  0
248  0
249  0
250  0
251  0
252  0
253  0
254  0
255  0
256  0
257  0
258  0
259  0
260  0
261  0
262  0
263  0
264  0
265  0
266  0
267  0
268  0
269  0
270  0
271  0
272  0
273  0
274  0
275  0
276  0
277  0
278  0
279  0
280  0
281  0
282  0
283  0
284  0
285  0
286  0
287  0
288  0
289  0
290  0
291  0
292  0
293  0
294  0
295  0
296  0
297  0
298  0
299  0
300  0
301  0
302  0
303  0
304  0
305  0
306  0
307  0
308  0
309  0
310  0
311  0
312  0
313  0
314  0
315  0
316  0
317  0
318  0
319  0
320  0
321  0
322  0
323  0
324  0
325  0
326  0
327  0
328  0
329  0
330  0
331  0
332  0
333  0
334  0
335  0
336  0
337  0
338  0
339  0
340  0
341  0
342  0
343  0
344  0
345  0
346  0
347  0
348  0
349  0
350  0
351  0
352  0
353  0
354  0
355  0
356  0
357  0
358  0
359  0
360  0
361  0
362  0
363  0
364  0
365  0
366  0
367  0
368  0
369  0
370  0
371  0
372  0
373  0
374  0
375  0
376  0
377  0
378  0
379  0
380  0
381  0
382  0
383  0
384  0
385  0
386  0
387  0
388  0
389  0
390  0
391  0
392  0
393  0
394  0
395  0
396  0
397  0
398  0
399  0
400  0
401  0
402  0
403  0
404  0
405  0
406  0
407  0
408  0
409  0
410  0
411  0
412  0
413  0
414  0
415  0
416  0
417  0
418  0
419  0
420  0
421  0
422  0
423  0
424  0
425  0
426  0
427  0
428  0
429  0
430  0
431  0
432  0
433  0
434  0
435  0
436  0
437  0
438  0
439  0
440  0
441  0
442  0
443  0
444  0
445  0
446  0
447  0
448  0
449  0
450  0
451  0
452  0
453  0
454  0
455  0
456  0
457  0
458  0
459  0
460  0
461  0
462  0
463  0
464  0
465  0
466  0
467  0
468  0
469  0
470  0
471  0
472  0
473  0
474  0
475  0
476  0
477  0
478  0
479  0
480  0
481  0
482  0
483  0
484  0
485  0
486  0
487  0
488  0
489  0
490  0
491  0
492  0
493  0
494  0
495  0
496  0
497  0
498  0
499  0
500  0
501  0
502  0
503  0
504  0
505  0
506  0
507  0
508  0
509  0
510  0
511  0
512  0
513  0
514  0
515  0
516  0
517  0
518  0
519  0
520  0
521  0
522  0
523  0
524  0
525  0
526  0
527  0
528  0
529  0
530  0
531  0
532  0
533  0
534  0
535  0
536  0
537  0
538  0
539  0
540  0
541  0
542  0
543  0
544  0
545  0
546  0
547  0
548  0
549  0
550  0
551  0
552  0
553  0
554  0
555  0
556  0
557  0
558  0
559  0
560  0
561  0
562  0
563  0
564  0
565  0
566  0
567  0
568  0
569  0
570  0
571  0
572  0
573  0
574  0
575  0
576  0
577  0
578  0
579  0
580  0
581  0
582  0
583  0
584  0
585  0
586  0
587  0
588  0
589  0
590  0
591  0
592  0
593  0
594  0
595  0
596  0
597  0
598  0
599  0
600  0
601  0
602  0
603  0
604  0
605  0
606  0
607  0
608  0
609  0
610  0
611  0
612  0
613  0
614  0
615  0
616  0
617  0
618  0
619  0
620  0
621  0
622  0
623  0
624  0
625  0
626  0
627  0
628  0
629  0
630  0
631  0
632  0
633  0
634  0
635  0
636  0
637  0
638  0
639  0
640  0
641  0
642  0
643  0
644  0
645  0
646  0
647  0
648  0
649  0
650  0
651  0
652  0
653  0
654  0
655  0
656  0
657  0
658  0
659  0
660  0
661  0
662  0
663  0
664  0
665  0
666  0
667  0
668  0
669  0
670  0
671  0
672  0
673  0
674  0
675  0
676  0
677  0
678  0
679  0
680  0
681  0
682  0
683  0
684  0
685  0
686  0
687  0
688  0
689  0
690  0
691  0
692  0
693  0
694  0
695  0
696  0
697  0
698  0
699  0
700  0
701  0
702  0
703  0
704  0
705  0
706  0
707  0
708  0
709  0
710  0
711  0
712  0
713  0
714  0
715  0
716  0
717  0
718  0
719  0
720  0
721  0
722  0
723  0
724  0
725  0
726  0
727  0
728  0
729  0
730  0
731  0
732  0
733  0
734  0
735  0
736  0
737  0
738  0
739  0
740  0
741  0
742  0
743  0
744  0
745  0
746  0
747  0
748  0
749  0
750  0
751  0
752  0
753  0
754  0
755  0
756  0
757  0
758  0
759  0
760  0
761  0
762  0
763  0
764  0
765  0
766  0
767  0
768  0
769  0
770  0
771  0
772  0
773  0
774  0
775  0
776  0
777  0
778  0
779  0
780  0
781  0
782  0
783  0
784  0
785  0
786  0
787  0
788  0
789  0
790  0
791  0
792  0
793  0
794  0
795  0
796  0
797  0
798  0
799  0
800  0
801  0
802  0
803  0
804  0
805  0
806  0
807  0
808  0
809  0
810  0
811  0
812  0
813  0
814  0
815  0
816  0
817  0
818  0
819  0
820  0
821  0
822  0
823  0
824  0
825  0
826  0
827  0
828  0
829  0
830  0
831  0
832  0
833  0
834  0
835  0
836  0
837  0
838  0
839  0
840  0
841  0
842  0
843  0
844  0
845  0
846  0
847  0
848  0
849  0
850  0
851  0
852  0
853  0
854  0
855  0
856  0
857  0
858  0
859  0
860  0
861  0
862  0
863  0
864  0
865  0
866  0
867  0
868  0
869  0
870  0
871  0
872  0
873  0
874  0
875  0
876  0
877  0
878  0
879  0
880  0
881  0
882  0
883  0
884  0
885  0
886  0
887  0
888  0
889  0
890  0
891  0
892  0
893  0
894  0
895  0
896  0
897  0
898  0
899  0
900  0
901  0
902  0
903  0
904  0
905  0
906  0
907  0
908  0
909  0
910  0
911  0
912  0
913  0
914  0
915  0
916  0
917  0
918  0
919  0
920  0
921  0
922  0
923  0
924  0
925  0
926  0
927  0
928  0
929  0
930  0
931  0
932  0
933  0
934  0
935  0
936  0
937  0
938  0
939  0
940  0
941  0
942  0
943  0
944  0
945  0
946  0
947  0
948  0
949  0
950  0
951  0
952  0
953  0
954  0
955  0
956  0
957  0
958  0
959  0
960  0
961  0
962  0
963  0
964  0
965  0
966  0
967  0
968  0
969  0
970  0
971  0
972  0
973  0
974  0
975  0
976  0
977  0
978  0
979  0
980  0
981  0
982  0
983  0
984  0
985  0
986  0
987  0
988  0
989  0
990  0
991  0
992  0
993  0
994  0
995  0
996  0
997  0
998  0
999  0
1000  0
1001  0
1002  0
1003  0
1004  0
1005  0
1006  0
1007  0
1008  0
1009  0
1010  0
1011  0
1012  0
1013  0
1014  0
1015  0
1016  0
1017  0
1018  0
1019  0
1020  0
1021  0
1022  0
1023  0
1024  0
1025  0
1026  0
1027  0
1028  0
1029  0
1030  0
1031  0
1032  0
1033  0
1034  0
1035  0
1036  0
1037  0
1038  0
1039  0
1040  0
1041  0
1042  0
1043  0
1044  0
1045  0
1046  0
1047  0
1048  0
1049  0
1050  0
1051  0
1052  0
1053  0
1054  0
1055  0
1056  0
1057  0
1058  0
1059  0
1060  0
1061  0
1062  0
1063  0
1064  0
1065  0
1066  0
1067  0
1068  0
1069  0
1070  0
1071  0
1072  0
1073  0
1074  0
1075  0
1076  0
1077  0
1078  0
1079  0
1080  0
1081  0
1082  0
1083  0
1084  0
1085  0
1086  0
1087  0
1088  0
1089  0
1090  0
1091  0
1092  0
1093  0
1094  0
1095  0
1096  0
1097  0
1098  0
1099  0
1100  0
1101  0
1102  0
1103  0
1104  0
1105  0
1106  0
1107  0
1108  0
1109  0
1110  0
1111  0
1112  0
1113  0
1114  0
1115  0
1116  0
1117  0
1118  0
1119  0
1120  0
1121  0
1122  0
1123  0
1124  0
1125  0
1126  0
1127  0
1128  0
1129  0
1130  0
1131  0
1132  0
1133  0
1134  0
1135  0
1136  0
1137  0
1138  0
1139  0
1140  0
1141  0
1142  0
1143  0
1144  0
1145  0
1146  0
1147  0
1148  0
1149  0
1150  0
1151  0
1152  0
1153  0
1154  0
1155  0
1156  0
1157  0
1158  0
1159  0
1160  0
1161  0
1162  0
1163  0
1164  0
1165  0
1166  0
1167  0
1168  0
1169  0
1170  0
1171  0
1172  0
1173  0
1174  0
1175  0
1176  0
1177  0
1178  0
1179  0
1180  0
1181  0
1182  0
1183  0
1184  0
1185  0
1186  0
1187  0
1188  0
1189  0
1190  0
1191  0
1192  0
1193  0
1194  0
1195  0
1196  0
1197  0
1198  0
1199  0
1200  0
1201  0
1202  0
1203  0
1204  0
1205  0
1206  0
1207  0
1208  0
1209  0
1210  0
1211  0
1212  0
1213  0
1214  0
1215  0
1216  0
1217  0
1218  0
1219  0
1220  0
1221  0
1222  0
1223  0
1224  0
1225  0
1226  0
1227  0
1228  0
1229  0
1230  0
1231  0
1232  0
1233  0
1234  0
1235  0
1236  0
1237  0
1238  0
1239  0
1240  0
1241  0
1242  0
1243  0
1244  0
1245  0
1246  0
1247  0
1248  0
1249  0
1250  0
1251  0
1252  0
1253  0
1254  0
1255  0
1256  0
1257  0
1258  0
1259  0
1260  0
1261  0
1262  0
1263  0
1264  0
1265  0
1266  0
1267  0
1268  0
1269  0
1270  0
1271  0
1272  0
1273  0
1274  0
1275  0
1276  0
1277  0
1278  0
1279  0
1280  0
1281  0
1282  0
1283  0
1284  0
1285  0
1286  0
1287  0
1288  0
1289  0
1290  0
1291  0
1292  0
1293  0
1294  0
1295  0
1296  0
1297  0
1298  0
1299  0
1300  0
1301  0
1302  0
1303  0
1304  0
1305  0
1306  0
1307  0
1308  0
1309  0
1310  0
1311  0
1312  0
1313  0
1314  0
1315  0
1316  0
1317  0
1318  0
1319  0
1320  0
1321  0
1322  0
1323  0
1324  0
1325  0
1326  0
1327  0
1328  0
1329  0
1330  0
1331  0
1332  0
1333  0
1334  0
1335  0
1336  0
1337  0
1338  0
1339  0
1340  0
1341  0
1342  0
1343  0
1344  0
1345  0
1346  0
1347  0
1348  0
1349  0
1350  0
1351  0
1352  0
1353  0
1354  0
1355  0
1356  0
1357  0
1358  0
1359  0
1360  0
1361  0
1362  0
1363  0
1364  0
1365  0
1366  0
1367  0
1368  0
1369  0
1370  0
1371  0
1372  0
1373  0
1374  0
1375  0
1376  0
1377  0
1378  0
1379  0
1380  0
1381  0
1382  0
1383  0
1384  0
1385  0
1386  0
1387  0
1388  0
1389  0
1390  0
1391  0
1392  0
1393  0
1394  0
1395  0
1396  0
1397  0
1398  0
1399  0
1400  0
1401  0
1402  0
1403  0
1404  0
1405  0
1406  0
1407  0
1408  0
1409  0
1410  0
1411  0
1412  0
1413  0
1414  0
1415  0
1416  0
1417  0
1418  0
1419  0
1420  0
1421  0
1422  0
1423  0
1424  0
1425  0
1426  0
1427  0
1428  0
1429  0
1430  0
1431  0
1432  0
1433  0
1434  0
1435  0
1436  0
1437  0
1438  0
1439  0
1440  0
1441  0
1442  0
1443  0
1444  0
1445  0
1446  0
1447  0
1448  0
1449  0
1450  0
1451  0
1452  0
1453  0
1454  0
1455  0
1456  0
1457  0
1458  0
1459  0
1460  0
1461  0
1462  0
1463  0
1464  0
1465  0
1466  0
1467  0
1468  0
1469  0
1470  0
1471  0
1472  0
1473  0
1474  0
1475  0
1476  0
1477  0
1478  0
1479  0
1480  0
1481  0
1482  0
1483  0
1484  0
1485  0
1486  0
1487  0
1488  0
1489  0
1490  0
1491  0
1492  0
1493  0
1494  0
1495  0
1496  0
1497  0
1498  0
1499  0
1500  0
1501  0
1502  0
1503  0
1504  0
1505  0
1506  0
1507  0
1508  0
1509  0
1510  0
1511  0
1512  0
1513  0
1514  0
1515  0
1516  0
1517  0
1518  0
1519  0
1520  0
1521  0
1522  0
1523  0
1524  0
1525  0
1526  0
1527  0
1528  0
1529  0
1530  0
1531  0
1532  0
1533  0
1534  0
1535  0
1536  0
1537  0
1538  0
1539  0
1540  0
1541  0
1542  0
1543  0
1544  0
1545  0
1546  0
1547  0
1548  0
1549  0
1550  0
1551  0
1552  0
1553  0
1554  0
1555  0
1556  0
1557  0
1558  0
1559  0
1560  0
1561  0
1562  0
1563  0
1564  0
1565  0
1566  0
1567  0
1568  0
1569  0
1570  0
1571  0
1572  0
1573  0
1574  0
1575  0
1576  0
1577  0
1578  0
1579  0
1580  0
1581  0
1582  0
1583  0
1584  0
1585  0
1586  0
1587  0
1588  0
1589  0
1590  0
1591  0
1592  0
1593  0
1594  0
1595  0
1596  0
1597  6
1598  12
1599  24
1600  81
1601  311
1602  969
1603  2474
1604  4380
1605  6016
1606  6912
1607  7376
1608  7561
1609  7690
1610  7663
1611  7658
1612  7704
1613  7820
1614  7888
1615  7893
1616  7761
1617  7952
1618  7703
1619  7684
1620  7461
1621  7432
1622  7385
1623  7352
1624  7293
1625  7113
1626  6979
1627  7050
1628  6644
1629  6660
1630  6562
1631  6279
1632  6249
1633  6016
1634  5910
1635  5755
1636  5529
1637  5256
1638  5278
1639  4916
1640  4848
1641  4635
1642  4485
1643  4368
1644  4200
1645  3896
1646  3925
1647  3650
1648  3485
1649  3443
1650  3256
1651  3107
1652  3045
1653  2859
1654  2718
1655  2564
1656  2535
1657  2344
1658  2322
1659  2120
1660  2079
1661  2031
1662  1878
1663  1825
1664  1668
1665  1568
1666  1523
1667  1438
1668  1477
1669  1343
1670  1265
1671  1190
1672  1175
1673  1083
1674  1049
1675  1038
1676  974
1677  889
1678  894
1679  821
1680  807
1681  762
1682  725
1683  654
1684  639
1685  593
1686  616
1687  612
1688  546
1689  524
1690  504
1691  470
1692  442
1693  426
1694  487
1695  441
1696  370
1697  433
1698  406
1699  417
1700  371
1701  375
1702  334
1703  347
1704  327
1705  271
1706  280
1707  298
1708  256
1709  281
1710  253
1711  269
1712  227
1713  227
1714  227
1715  189
1716  225
1717  190
1718  202
1719  208
1720  187
1721  204
1722  200
1723  183
1724  168
1725  196
1726  180
1727  167
1728  150
1729  154
1730  150
1731  151
1732  146
1733  150
1734  143
1735  129
1736  152
1737  142
1738  120
1739  154
1740  122
1741  133
1742  140
1743  145
1744  120
1745  88
1746  124
1747  125
1748  107
1749  104
1750  112
1751  113
1752  127
1753  102
1754  118
1755  110
1756  117
1757  113
1758  116
1759  123
1760  108
1761  118
1762  116
1763  110
1764  103
1765  105
1766  104
1767  111
1768  115
1769  96
1770  105
1771  109
1772  117
1773  123
1774  112
1775  132
1776  107
1777  103
1778  115
1779  125
1780  136
1781  126
1782  124
1783  139
1784  116
1785  128
1786  120
1787  114
1788  119
1789  145
1790  122
1791  135
1792  130
1793  151
1794  166
1795  141
1796  134
1797  167
1798  154
1799  174
1800  150
1801  143
1802  145
1803  139
1804  174
1805  160
1806  176
1807  165
1808  183
1809  195
1810  177
1811  171
1812  193
1813  206
1814  204
1815  182
1816  192
1817  213
1818  199
1819  205
1820  228
1821  239
1822  229
1823  265
1824  244
1825  256
1826  254
1827  240
1828  268
1829  245
1830  276
1831  302
1832  297
1833  287
1834  293
1835  308
1836  298
1837  326
1838  339
1839  355
1840  332
1841  372
1842  329
1843  319
1844  333
1845  376
1846  373
1847  366
1848  429
1849  393
1850  383
1851  415
1852  425
1853  446
1854  404
1855  405
1856  445
1857  398
1858  402
1859  445
1860  440
1861  461
1862  459
1863  445
1864  468
1865  453
1866  482
1867  457
1868  537
1869  453
1870  483
1871  453
1872  549
1873  475
1874  485
1875  512
1876  499
1877  540
1878  581
1879  533
1880  564
1881  585
1882  586
1883  525
1884  542
1885  579
1886  529
1887  613
1888  533
1889  608
1890  585
1891  574
1892  585
1893  626
1894  608
1895  597
1896  585
1897  637
1898  586
1899  584
1900  647
1901  627
1902  603
1903  599
1904  667
1905  654
1906  605
1907  614
1908  613
1909  638
1910  592
1911  596
1912  619
1913  662
1914  640
1915  640
1916  620
1917  662
1918  643
1919  705
1920  655
1921  648
1922  643
1923  645
1924  704
1925  655
1926  603
1927  617
1928  638
1929  649
1930  654
1931  632
1932  615
1933  648
1934  610
1935  655
1936  678
1937  643
1938  634
1939  641
1940  688
1941  639
1942  666
1943  643
1944  621
1945  626
1946  641
1947  580
1948  716
1949  656
1950  649
1951  590
1952  618
1953  621
1954  637
1955  594
1956  650
1957  639
1958  642
1959  623
1960  617
1961  608
1962  660
1963  655
1964  650
1965  563
1966  556
1967  580
1968  598
1969  590
1970  623
1971  612
1972  554
1973  577
1974  584
1975  547
1976  589
1977  533
1978  563
1979  525
1980  543
1981  548
1982  609
1983  536
1984  581
1985  613
1986  578
1987  573
1988  543
1989  569
1990  516
1991  511
1992  579
1993  506
1994  509
1995  574
1996  531
1997  571
1998  520
1999  506
2000  530
2001  516
2002  524
2003  502
2004  509
2005  534
2006  514
2007  531
2008  487
2009  478
2010  471
2011  462
2012  492
2013  467
2014  478
2015  471
2016  447
2017  441
2018  432
2019  465
2020  454
2021  422
2022  417
2023  444
2024  453
2025  418
2026  409
2027  454
2028  438
2029  438
2030  359
2031  455
2032  476
2033  401
2034  395
2035  394
2036  399
2037  357
2038  421
2039  368
2040  377
2041  403
2042  390
2043  366
2044  392
2045  361
2046  365
2047  356
2048  354
2049  392
2050  355
2051  339
2052  345
2053  354
2054  378
2055  377
2056  381
2057  340
2058  329
2059  359
2060  333
2061  333
2062  344
2063  310
2064  310
2065  346
2066  334
2067  343
2068  296
2069  313
2070  318
2071  309
2072  295
2073  319
2074  303
2075  295
2076  310
2077  329
2078  281
2079  289
2080  310
2081  293
2082  285
2083  288
2084  283
2085  267
2086  265
2087  263
2088  264
2089  290
2090  286
2091  251
2092  285
2093  273
2094  259
2095  255
2096  244
2097  251
2098  241
2099  219
2100  244
2101  238
2102  244
2103  218
2104  237
2105  235
2106  242
2107  206
2108  216
2109  194
2110  217
2111  210
2112  206
2113  213
2114  212
2115  209
2116  212
2117  210
2118  227
2119  196
2120  216
2121  202
2122  200
2123  230
2124  198
2125  197
2126  198
2127  207
2128  184
2129  198
2130  153
2131  188
2132  205
2133  177
2134  167
2135  163
2136  191
2137  175
2138  185
2139  170
2140  158
2141  182
2142  164
2143  156
2144  164
2145  157
2146  146
2147  142
2148  176
2149  153
2150  163
2151  166
2152  163
2153  166
2154  165
2155  137
2156  139
2157  143
2158  149
2159  163
2160  148
2161  132
2162  137
2163  134
2164  138
2165  142
2166  143
2167  117
2168  131
2169  133
2170  120
2171  107
2172  127
2173  132
2174  135
2175  132
2176  135
2177  116
2178  119
2179  123
2180  97
2181  137
2182  132
2183  127
2184  107
2185  122
2186  131
2187  107
2188  135
2189  94
2190  110
2191  105
2192  98
2193  98
2194  107
2195  91
2196  113
2197  104
2198  103
2199  99
2200  103
2201  108
2202  92
2203  96
2204  101
2205  105
2206  89
2207  84
2208  99
2209  102
2210  84
2211  95
2212  85
2213  91
2214  85
2215  85
2216  81
2217  81
2218  78
2219  81
2220  80
2221  87
2222  86
2223  72
2224  82
2225  97
2226  82
2227  77
2228  79
2229  68
2230  87
2231  69
2232  75
2233  86
2234  94
2235  74
2236  78
2237  51
2238  84
2239  81
2240  95
2241  90
2242  70
2243  74
2244  75
2245  66
2246  78
2247  72
2248  75
2249  60
2250  76
2251  60
2252  72
2253  80
2254  67
2255  54
2256  55
2257  64
2258  54
2259  70
2260  53
2261  59
2262  54
2263  61
2264  61
2265  59
2266  46
2267  59
2268  46
2269  66
2270  58
2271  44
2272  47
2273  49
2274  54
2275  56
2276  55
2277  38
2278  53
2279  57
2280  46
2281  59
2282  62
2283  57
2284  37
2285  50
2286  56
2287  60
2288  46
2289  56
2290  48
2291  38
2292  39
2293  43
2294  45
2295  53
2296  45
2297  36
2298  44
2299  44
2300  52
2301  50
2302  42
2303  35
2304  38
2305  42
2306  49
2307  51
2308  36
2309  35
2310  35
2311  43
2312  38
2313  43
2314  39
2315  42
2316  32
2317  38
2318  44
2319  42
2320  41
2321  40
2322  38
2323  35
2324  42
2325  34
2326  24
2327  29
2328  31
2329  28
2330  39
2331  34
2332  35
2333  28
2334  36
2335  34
2336  28
2337  36
2338  35
2339  42
2340  33
2341  31
2342  35
2343  35
2344  30
2345  25
2346  35
2347  24
2348  32
2349  41
2350  43
2351  22
2352  26
2353  32
2354  28
2355  21
2356  40
2357  31
2358  30
2359  28
2360  34
2361  43
2362  21
2363  30
2364  31
2365  28
2366  28
2367  27
2368  31
2369  26
2370  29
2371  25
2372  39
2373  27
2374  17
2375  22
2376  29
2377  27
2378  18
2379  23
2380  16
2381  18
2382  26
2383  20
2384  30
2385  26
2386  18
2387  20
2388  22
2389  16
2390  12
2391  17
2392  23
2393  27
2394  25
2395  20
2396  26
2397  19
2398  22
2399  21
2400  27
2401  19
2402  19
2403  25
2404  17
2405  20
2406  24
2407  19
2408  18
2409  19
2410  23
2411  13
2412  15
2413  16
2414  24
2415  22
2416  22
2417  21
2418  19
2419  15
2420  16
2421  16
2422  25
2423  11
2424  18
2425  24
2426  14
2427  18
2428  16
2429  15
2430  18
2431  20
2432  20
2433  18
2434  16
2435  20
2436  15
2437  19
2438  11
2439  14
2440  22
2441  15
2442  14
2443  16
2444  13
2445  13
2446  14
2447  15
2448  13
2449  12
2450  13
2451  9
2452  17
2453  16
2454  11
2455  11
2456  14
2457  7
2458  8
2459  19
2460  14
2461  7
2462  17
2463  15
2464  13
2465  12
2466  17
2467  9
2468  18
2469  17
2470  14
2471  9
2472  12
2473  13
2474  16
2475  9
2476  14
2477  12
2478  12
2479  8
2480  13
2481  15
2482  8
2483  9
2484  14
2485  9
2486  15
2487  9
2488  15
2489  16
2490  12
2491  14
2492  13
2493  8
2494  12
2495  11
2496  19
2497  15
2498  9
2499  10
2500  10
2501  13
2502  14
2503  7
2504  8
2505  9
2506  8
2507  13
2508  8
2509  7
2510  8
2511  11
2512  13
2513  7
2514  7
2515  7
2516  8
2517  14
2518  15
2519  13
2520  5
2521  13
2522  12
2523  9
2524  9
2525  7
2526  9
2527  10
2528  14
2529  10
2530  8
2531  12
2532  9
2533  18
2534  9
2535  8
2536  13
2537  9
2538  4
2539  11
2540  10
2541  14
2542  5
2543  10
2544  6
2545  9
2546  4
2547  12
2548  9
2549  10
2550  14
2551  8
2552  7
2553  6
2554  7
2555  10
2556  12
2557  4
2558  5
2559  14
2560  7
2561  11
2562  8
2563  9
2564  7
2565  7
2566  5
2567  7
2568  11
2569  6
2570  10
2571  8
2572  8
2573  6
2574  5
2575  13
2576  10
2577  14
2578  4
2579  11
2580  8
2581  7
2582  4
2583  11
2584  3
2585  5
2586  10
2587  9
2588  9
2589  6
2590  8
2591  7
2592  6
2593  7
2594  7
2595  5
2596  13
2597  7
2598  9
2599  4
2600  8
2601  10
2602  8
2603  5
2604  6
2605  9
2606  6
2607  9
2608  6
2609  8
2610  6
2611  7
2612  6
2613  5
2614  5
2615  6
2616  3
2617  3
2618  6
2619  4
2620  4
2621  8
2622  7
2623  2
2624  8
2625  4
2626  7
2627  10
2628  8
2629  4
2630  7
2631  6
2632  2
2633  6
2634  7
2635  7
2636  8
2637  9
2638  4
2639  4
2640  3
2641  4
2642  6
2643  3
2644  6
2645  8
2646  7
2647  7
2648  7
2649  2
2650  3
2651  9
2652  5
2653  6
2654  2
2655  8
2656  5
2657  2
2658  6
2659  6
2660  8
2661  7
2662  9
2663  4
2664  5
2665  9
2666  5
2667  3
2668  3
2669  8
2670  6
2671  6
2672  4
2673  6
2674  7
2675  1
2676  5
2677  7
2678  7
2679  5
2680  2
2681  12
2682  10
2683  3
2684  5
2685  3
2686  4
2687  6
2688  6
2689  5
2690  5
2691  2
2692  3
2693  8
2694  1
2695  7
2696  7
2697  9
2698  2
2699  1
2700  4
2701  3
2702  5
2703  6
2704  4
2705  8
2706  3
2707  7
2708  4
2709  5
2710  4
2711  7
2712  4
2713  8
2714  9
2715  3
2716  0
2717  8
2718  4
2719  6
2720  7
2721  2
2722  5
2723  7
2724  6
2725  6
2726  5
2727  3
2728  4
2729  4
2730  7
2731  4
2732  5
2733  5
2734  4
2735  2
2736  6
2737  3
2738  7
2739  7
2740  7
2741  10
2742  6
2743  2
2744  3
2745  3
2746  3
2747  3
2748  6
2749  5
2750  5
2751  3
2752  3
2753  11
2754  6
2755  2
2756  5
2757  5
2758  1
2759  4
2760  3
2761  4
2762  1
2763  2
2764  4
2765  7
2766  7
2767  5
2768  1
2769  2
2770  5
2771  4
2772  6
2773  7
2774  3
2775  2
2776  1
2777  4
2778  5
2779  2
2780  2
2781  4
2782  5
2783  5
2784  5
2785  2
2786  5
2787  7
2788  4
2789  1
2790  4
2791  7
2792  8
2793  2
2794  5
2795  3
2796  2
2797  2
2798  0
2799  3
2800  9
2801  4
2802  4
2803  2
2804  4
2805  3
2806  1
2807  3
2808  4
2809  6
2810  3
2811  4
2812  6
2813  2
2814  5
2815  2
2816  1
2817  3
2818  2
2819  4
2820  6
2821  3
2822  5
2823  3
2824  3
2825  9
2826  3
2827  0
2828  2
2829  3
2830  4
2831  5
2832  5
2833  0
2834  6
2835  7
2836  5
2837  2
2838  5
2839  3
2840  2
2841  1
2842  7
2843  4
2844  4
2845  1
2846  6
2847  6
2848  2
2849  5
2850  3
2851  4
2852  3
2853  2
2854  4
2855  2
2856  4
2857  3
2858  3
2859  4
2860  0
2861  2
2862  4
2863  1
2864  2
2865  2
2866  6
2867  2
2868  2
2869  0
2870  1
2871  2
2872  5
2873  2
2874  3
2875  3
2876  2
2877  3
2878  4
2879  3
2880  2
2881  1
2882  3
2883  3
2884  4
2885  1
2886  6
2887  3
2888  2
2889  4
2890  1
2891  3
2892  1
2893  2
2894  3
2895  5
2896  2
2897  2
2898  2
2899  2
2900  3
2901  3
2902  4
2903  4
2904  1
2905  4
2906  3
2907  3
2908  1
2909  4
2910  2
2911  4
2912  3
2913  3
2914  3
2915  1
2916  4
2917  5
2918  3
2919  7
2920  2
2921  4
2922  2
2923  4
2924  3
2925  3
2926  1
2927  4
2928  2
2929  2
2930  0
2931  5
2932  1
2933  1
2934  3
2935  2
2936  4
2937  4
2938  2
2939  2
2940  5
2941  4
2942  3
2943  2
2944  6
2945  2
2946  3
2947  1
2948  1
2949  1
2950  2
2951  3
2952  2
2953  3
2954  5
2955  1
2956  3
2957  4
2958  1
2959  3
2960  2
2961  2
2962  3
2963  6
2964  0
2965  6
2966  3
2967  4
2968  2
2969  2
2970  2
2971  3
2972  2
2973  5
2974  1
2975  2
2976  2
2977  3
2978  1
2979  3
2980  1
2981  1
2982  1
2983  3
2984  7
2985  0
2986  3
2987  2
2988  2
2989  1
2990  4
2991  1
2992  5
2993  3
2994  0
2995  4
2996  4
2997  2
2998  3
2999  1
3000  5
3001  2
3002  8
3003  0
3004  0
3005  1
3006  2
3007  3
3008  4
3009  2
3010  0
3011  4
3012  1
3013  2
3014  6
3015  2
3016  4
3017  3
3018  0
3019  1
3020  2
3021  0
3022  3
3023  1
3024  2
3025  4
3026  7
3027  2
3028  1
3029  1
3030  3
3031  3
3032  3
3033  5
3034  2
3035  4
3036  3
3037  2
3038  4
3039  1
3040  1
3041  5
3042  2
3043  3
3044  3
3045  4
3046  4
3047  1
3048  3
3049  1
3050  0
3051  3
3052  0
3053  1
3054  2
3055  1
3056  2
3057  2
3058  1
3059  1
3060  1
3061  2
3062  2
3063  4
3064  1
3065  1
3066  1
3067  1
3068  3
3069  1
3070  1
3071  2
3072  1
3073  3
3074  2
3075  3
3076  3
3077  3
3078  5
3079  2
3080  1
3081  0
3082  4
3083  0
3084  4
3085  3
3086  0
3087  2
3088  4
3089  2
3090  6
3091  1
3092  2
3093  4
3094  5
3095  1
3096  3
3097  2
3098  2
3099  4
3100  1
3101  2
3102  3
3103  0
3104  2
3105  0
3106  2
3107  1
3108  1
3109  3
3110  2
3111  0
3112  5
3113  5
3114  1
3115  2
3116  0
3117  1
3118  1
3119  1
3120  3
3121  1
3122  2
3123  6
3124  4
3125  4
3126  5
3127  1
3128  1
3129  4
3130  0
3131  1
3132  3
3133  1
3134  3
3135  6
3136  0
3137  1
3138  2
3139  1
3140  3
3141  3
3142  2
3143  3
3144  0
3145  2
3146  3
3147  3
3148  1
3149  3
3150  2
3151  2
3152  1
3153  1
3154  1
3155  0
3156  2
3157  1
3158  3
3159  4
3160  1
3161  1
3162  0
3163  2
3164  2
3165  2
3166  1
3167  3
3168  6
3169  0
3170  0
3171  2
3172  1
3173  2
3174  1
3175  2
3176  1
3177  2
3178  3
3179  2
3180  8
3181  4
3182  1
3183  1
3184  4
3185  0
3186  2
3187  3
3188  0
3189  0
3190  4
3191  1
3192  2
3193  2
3194  7
3195  1
3196  0
3197  1
3198  0
3199  3
3200  2
3201  2
3202  2
3203  1
3204  4
3205  2
3206  0
3207  1
3208  3
3209  1
3210  1
3211  1
3212  2
3213  3
3214  2
3215  3
3216  1
3217  0
3218  4
3219  1
3220  4
3221  1
3222  0
3223  1
3224  3
3225  4
3226  1
3227  2
3228  0
3229  1
3230  1
3231  3
3232  2
3233  1
3234  1
3235  1
3236  1
3237  2
3238  1
3239  1
3240  5
3241  2
3242  3
3243  3
3244  1
3245  0
3246  2
3247  1
3248  1
3249  0
3250  1
3251  2
3252  0
3253  3
3254  1
3255  3
3256  1
3257  3
3258  1
3259  2
3260  2
3261  0
3262  1
3263  0
3264  3
3265  3
3266  1
3267  1
3268  3
3269  0
3270  1
3271  4
3272  1
3273  4
3274  2
3275  0
3276  2
3277  5
3278  1
3279  2
3280  3
3281  2
3282  1
3283  5
3284  3
3285  2
3286  3
3287  0
3288  2
3289  3
3290  4
3291  0
3292  3
3293  0
3294  1
3295  0
3296  1
3297  2
3298  3
3299  5
3300  4
3301  2
3302  1
3303  2
3304  1
3305  2
3306  4
3307  4
3308  2
3309  2
3310  0
3311  0
3312  1
3313  2
3314  2
3315  1
3316  2
3317  2
3318  2
3319  1
3320  1
3321  0
3322  4
3323  1
3324  3
3325  3
3326  1
3327  2
3328  2
3329  3
3330  1
3331  4
3332  1
3333  3
3334  3
3335  0
3336  3
3337  1
3338  4
3339  2
3340  2
3341  2
3342  0
3343  3
3344  3
3345  1
3346  0
3347  4
3348  1
3349  1
3350  3
3351  3
3352  8
3353  4
3354  3
3355  2
3356  3
3357  2
3358  0
3359  4
3360  4
3361  2
3362  1
3363  3
3364  3
3365  4
3366  3
3367  2
3368  2
3369  1
3370  0
3371  2
3372  0
3373  2
3374  2
3375  0
3376  3
3377  1
3378  1
3379  2
3380  4
3381  2
3382  3
3383  2
3384  5
3385  1
3386  3
3387  4
3388  1
3389  1
3390  1
3391  1
3392  2
3393  0
3394  4
3395  0
3396  2
3397  5
3398  2
3399  2
3400  1
3401  3
3402  1
3403  0
3404  0
3405  0
3406  2
3407  1
3408  2
3409  0
3410  2
3411  3
3412  2
3413  0
3414  3
3415  0
3416  1
3417  7
3418  1
3419  1
3420  0
3421  5
3422  2
3423  0
3424  0
3425  2
3426  2
3427  2
3428  0
3429  1
3430  3
3431  3
3432  1
3433  4
3434  0
3435  3
3436  2
3437  0
3438  2
3439  0
3440  0
3441  2
3442  0
3443  0
3444  5
3445  2
3446  1
3447  0
3448  1
3449  0
3450  4
3451  3
3452  3
3453  2
3454  1
3455  2
3456  3
3457  1
3458  1
3459  0
3460  3
3461  0
3462  2
3463  4
3464  3
3465  1
3466  1
3467  0
3468  3
3469  1
3470  3
3471  1
3472  0
3473  0
3474  1
3475  2
3476  0
3477  3
3478  3
3479  4
3480  1
3481  2
3482  0
3483  1
3484  3
3485  1
3486  2
3487  2
3488  2
3489  4
3490  1
3491  4
3492  2
3493  4
3494  0
3495  0
3496  3
3497  2
3498  1
3499  1
3500  3
3501  0
3502  0
3503  4
3504  1
3505  5
3506  1
3507  1
3508  1
3509  3
3510  1
3511  2
3512  0
3513  2
3514  3
3515  2
3516  5
3517  0
3518  1
3519  1
3520  1
3521  0
3522  2
3523  0
3524  1
3525  2
3526  0
3527  1
3528  0
3529  1
3530  1
3531  4
3532  2
3533  1
3534  3
3535  2
3536  0
3537  2
3538  0
3539  2
3540  3
3541  0
3542  0
3543  3
3544  0
3545  1
3546  3
3547  2
3548  2
3549  0
3550  1
3551  1
3552  1
3553  2
3554  1
3555  1
3556  1
3557  2
3558  2
3559  0
3560  1
3561  1
3562  3
3563  0
3564  2
3565  0
3566  1
3567  2
3568  5
3569  3
3570  2
3571  1
3572  0
3573  2
3574  1
3575  1
3576  0
3577  2
3578  3
3579  2
3580  3
3581  2
3582  3
3583  1
3584  3
3585  1
3586  1
3587  2
3588  0
3589  0
3590  2
3591  1
3592  0
3593  2
3594  2
3595  1
3596  3
3597  1
3598  1
3599  3
3600  1
3601  1
3602  0
3603  1
3604  1
3605  2
3606  1
3607  0
3608  3
3609  5
3610  1
3611  1
3612  2
3613  2
3614  2
3615  1
3616  2
3617  2
3618  0
3619  0
3620  2
3621  0
3622  1
3623  1
3624  1
3625  0
3626  0
3627  0
3628  3
3629  0
3630  1
3631  0
3632  1
3633  3
3634  1
3635  4
3636  1
3637  0
3638  0
3639  1
3640  0
3641  1
3642  2
3643  3
3644  0
3645  1
3646  0
3647  2
3648  2
3649  2
3650  2
3651  1
3652  2
3653  1
3654  0
3655  1
3656  1
3657  2
3658  0
3659  1
3660  2
3661  4
3662  2
3663  0
3664  3
3665  1
3666  2
3667  1
3668  1
3669  4
3670  1
3671  0
3672  2
3673  1
3674  1
3675  1
3676  1
3677  0
3678  1
3679  1
3680  1
3681  0
3682  0
3683  1
3684  2
3685  1
3686  0
3687  0
3688  0
3689  2
3690  1
3691  3
3692  2
3693  0
3694  1
3695  0
3696  1
3697  2
3698  2
3699  1
3700  2
3701  1
3702  0
3703  1
3704  2
3705  1
3706  0
3707  0
3708  1
3709  1
3710  1
3711  2
3712  1
3713  1
3714  2
3715  2
3716  1
3717  3
3718  1
3719  1
3720  2
3721  3
3722  1
3723  0
3724  1
3725  1
3726  2
3727  2
3728  1
3729  1
3730  1
3731  0
3732  4
3733  0
3734  1
3735  3
3736  0
3737  4
3738  2
3739  1
3740  1
3741  2
3742  1
3743  1
3744  0
3745  5
3746  6
3747  1
3748  0
3749  1
3750  5
3751  0
3752  2
3753  3
3754  1
3755  2
3756  0
3757  0
3758  4
3759  2
3760  1
3761  0
3762  0
3763  2
3764  2
3765  2
3766  1
3767  1
3768  1
3769  3
3770  1
3771  1
3772  3
3773  2
3774  1
3775  1
3776  2
3777  0
3778  3
3779  1
3780  1
3781  6
3782  1
3783  1
3784  0
3785  1
3786  1
3787  2
3788  2
3789  0
3790  1
3791  2
3792  0
3793  1
3794  0
3795  2
3796  0
3797  1
3798  1
3799  6
3800  1
3801  0
3802  0
3803  3
3804  0
3805  0
3806  4
3807  1
3808  2
3809  1
3810  1
3811  1
3812  4
3813  4
3814  0
3815  0
3816  1
3817  2
3818  1
3819  0
3820  2
3821  1
3822  3
3823  3
3824  3
3825  1
3826  1
3827  3
3828  1
3829  1
3830  1
3831  0
3832  2
3833  2
3834  0
3835  1
3836  3
3837  1
3838  2
3839  1
3840  0
3841  0
3842  0
3843  0
3844  0
3845  0
3846  0
3847  0
3848  0
3849  0
3850  0
3851  0
3852  0
3853  0
3854  0
3855  0
3856  0
3857  0
3858  0
3859  0
3860  0
3861  0
3862  0
3863  0
3864  0
3865  0
3866  0
3867  0
3868  0
3869  0
3870  0
3871  0
3872  0
3873  0
3874  0
3875  0
3876  0
3877  0
3878  0
3879  0
3880  0
3881  0
3882  0
3883  0
3884  0
3885  0
3886  0
3887  0
3888  0
3889  0
3890  0
3891  0
3892  0
3893  0
3894  0
3895  0
3896  0
3897  0
3898  0
3899  0
3900  0
3901  0
3902  0
3903  0
3904  0
3905  0
3906  0
3907  0
3908  0
3909  0
3910  0
3911  0
3912  0
3913  0
3914  0
3915  0
3916  0
3917  0
3918  0
3919  0
3920  0
3921  0
3922  0
3923  0
3924  0
3925  0
3926  0
3927  0
3928  0
3929  0
3930  0
3931  0
3932  0
3933  0
3934  0
3935  0
3936  0
3937  0
3938  0
3939  0
3940  0
3941  0
3942  0
3943  0
3944  0
3945  0
3946  0
3947  0
3948  0
3949  0
3950  0
3951  0
3952  0
3953  0
3954  0
3955  0
3956  0
3957  0
3958  0
3959  0
3960  0
3961  0
3962  0
3963  0
3964  0
3965  0
3966  0
3967  0
3968  0
3969  0
3970  0
3971  0
3972  0
3973  0
3974  0
3975  0
3976  0
3977  0
3978  0
3979  0
3980  0
3981  0
3982  0
3983  0
3984  0
3985  0
3986  0
3987  0
3988  0
3989  0
3990  0
3991  0
3992  0
3993  0
3994  0
3995  0
3996  0
3997  0
3998  0
3999  0
4000  0
4001  0
4002  0
4003  0
4004  0
4005  0
4006  0
4007  0
4008  0
4009  0
4010  0
4011  0
4012  0
4013  0
4014  0
4015  0
4016  0
4017  0
4018  0
4019  0
4020  0
4021  0
4022  0
4023  0
4024  0
4025  0
4026  0
4027  0
4028  0
4029  0
4030  0
4031  0
4032  0
4033  0
4034  0
4035  0
4036  0
4037  0
4038  0
4039  0
4040  0
4041  0
4042  0
4043  0
4044  0
4045  0
4046  0
4047  0
4048  0
4049  0
4050  0
4051  0
4052  0
4053  0
4054  0
4055  0
4056  0
4057  0
4058  0
4059  0
4060  0
4061  0
4062  0
4063  0
4064  0
4065  0
4066  0
4067  0
4068  0
4069  0
4070  0
4071  0
4072  0
4073  0
4074  0
4075  0
4076  0
4077  0
4078  0
4079  0
4080  0
4081  0
4082  0
4083  0
4084  0
4085  0
4086  0
4087  0
4088  0
4089  0
4090  0
4091  0
4092  0
4093  0
4094  0
4095  0
