0  0
1  0
2  0
3  0
4  0
5  0
6  0
7  0
8  0
9  0
10  0
11  0
12  0
13  0
14  0
15  0
16  0
17  0
18  0
19  0
20  0
21  0
22  0
23  0
24  0
25  0
26  0
27  0
28  0
29  0
30  0
31  0
32  0
33  0
34  0
35  0
36  0
37  0
38  0
39  0
40  0
41  0
42  0
43  0
44  0
45  0
46  0
47  0
48  0
49  0
50  0
51  0
52  0
53  0
54  0
55  0
56  0
57  0
58  0
59  0
60  0
61  0
62  0
63  0
64  0
65  0
66  0
67  0
68  0
69  0
70  0
71  0
72  0
73  0
74  0
75  0
76  0
77  0
78  0
79  0
80  0
81  0
82  0
83  0
84  0
85  0
86  0
87  0
88  0
89  0
90  0
91  0
92  0
93  0
94  0
95  0
96  0
97  0
98  0
99  0
100  0
101  0
102  0
103  0
104  0
105  0
106  0
107  0
108  0
109  0
110  0
111  0
112  0
113  0
114  0
115  0
116  0
117  0
118  0
119  0
120  0
121  0
122  0
123  0
124  0
125  0
126  0
127  0
128  0
129  0
130  0
131  0
132  0
133  0
134  0
135  0
136  0
137  0
138  0
139  0
140  0
141  0
142  0
143  0
144  0
145  0
146  0
147  0
148  0
149  0
150  0
151  0
152  0
153  0
154  0
155  0
156  0
157  0
158  0
159  0
160  0
161  0
162  0
163  0
164  0
165  0
166  0
167  0
168  0
169  0
170  0
171  0
172  0
173  0
174  0
175  0
176  0
177  0
178  0
179  0
180  0
181  0
182  0
183  0
184  0
185  0
186  0
187  0
188  0
189  0
190  0
191  0
192  0
193  0
194  0
195  0
196  0
197  0
198  0
199  0
200  0
201  0
202  0
203  0
204  0
205  0
206  0
207  0
208  0
209  0
210  0
211  0
212  0
213  0
214  0
215  0
216  0
217  0
218  0
219  0
220  0
221  0
222  0
223  0
224  0
225  0
226  0
227  0
228  0
229  0
230  0
231  0
232  0
233  0
234  0
235  0
236  0
237  0
238  0
239  0
240  0
241  0
242  0
243  0
244  0
245  0
246  0
247  0
248  0
249  0
250  0
251  0
252  0
253  0
254  0
255  0
256  0
257  0
258  0
259  0
260  0
261  0
262  0
263  0
264  0
265  0
266  0
267  0
268  0
269  0
270  0
271  0
272  0
273  0
274  0
275  0
276  0
277  0
278  0
279  0
280  0
281  0
282  0
283  0
284  0
285  0
286  0
287  0
288  0
289  0
290  0
291  0
292  0
293  0
294  0
295  0
296  0
297  0
298  0
299  0
300  0
301  0
302  0
303  0
304  0
305  0
306  0
307  0
308  0
309  0
310  0
311  0
312  0
313  0
314  0
315  0
316  0
317  0
318  0
319  0
320  0
321  0
322  0
323  0
324  0
325  0
326  0
327  0
328  0
329  0
330  0
331  0
332  0
333  0
334  0
335  0
336  0
337  0
338  0
339  0
340  0
341  0
342  0
343  0
344  0
345  0
346  0
347  0
348  0
349  0
350  0
351  0
352  0
353  0
354  0
355  0
356  0
357  0
358  0
359  0
360  0
361  0
362  0
363  0
364  0
365  0
366  0
367  0
368  0
369  0
370  0
371  0
372  0
373  0
374  0
375  0
376  0
377  0
378  0
379  0
380  0
381  0
382  0
383  0
384  0
385  0
386  0
387  0
388  0
389  0
390  0
391  0
392  0
393  0
394  0
395  0
396  0
397  0
398  0
399  0
400  0
401  0
402  0
403  0
404  0
405  0
406  0
407  0
408  0
409  0
410  0
411  0
412  0
413  0
414  0
415  0
416  0
417  0
418  0
419  0
420  0
421  0
422  0
423  0
424  0
425  0
426  0
427  0
428  0
429  0
430  0
431  0
432  0
433  0
434  0
435  0
436  0
437  0
438  0
439  0
440  0
441  0
442  0
443  0
444  0
445  0
446  0
447  0
448  0
449  0
450  0
451  0
452  0
453  0
454  0
455  0
456  0
457  0
458  0
459  0
460  0
461  0
462  0
463  0
464  0
465  0
466  0
467  0
468  0
469  0
470  0
471  0
472  0
473  0
474  0
475  0
476  0
477  0
478  0
479  0
480  0
481  0
482  0
483  0
484  0
485  0
486  0
487  0
488  0
489  0
490  0
491  0
492  0
493  0
494  0
495  0
496  0
497  0
498  0
499  0
500  0
501  0
502  0
503  0
504  0
505  0
506  0
507  0
508  0
509  0
510  0
511  0
512  0
513  0
514  0
515  0
516  0
517  0
518  0
519  0
520  0
521  0
522  0
523  0
524  0
525  0
526  0
527  0
528  0
529  0
530  0
531  0
532  0
533  0
534  0
535  0
536  0
537  0
538  0
539  0
540  0
541  0
542  0
543  0
544  0
545  0
546  0
547  0
548  0
549  0
550  0
551  0
552  0
553  0
554  0
555  0
556  0
557  0
558  0
559  0
560  0
561  0
562  0
563  0
564  0
565  0
566  0
567  0
568  0
569  0
570  0
571  0
572  0
573  0
574  0
575  0
576  0
577  0
578  0
579  0
580  0
581  0
582  0
583  0
584  0
585  0
586  0
587  0
588  0
589  0
590  0
591  0
592  0
593  0
594  0
595  0
596  0
597  0
598  0
599  0
600  0
601  0
602  0
603  0
604  0
605  0
606  0
607  0
608  0
609  0
610  0
611  0
612  0
613  0
614  0
615  0
616  0
617  0
618  0
619  0
620  0
621  0
622  0
623  0
624  0
625  0
626  0
627  0
628  0
629  0
630  0
631  0
632  0
633  0
634  0
635  0
636  0
637  0
638  0
639  0
640  0
641  0
642  0
643  0
644  0
645  0
646  0
647  0
648  0
649  0
650  0
651  0
652  0
653  0
654  0
655  0
656  0
657  0
658  0
659  0
660  0
661  0
662  0
663  0
664  0
665  0
666  0
667  0
668  0
669  0
670  0
671  0
672  0
673  0
674  0
675  0
676  0
677  0
678  0
679  0
680  0
681  0
682  0
683  0
684  0
685  0
686  0
687  0
688  0
689  0
690  0
691  0
692  0
693  0
694  0
695  0
696  0
697  0
698  0
699  0
700  0
701  0
702  0
703  0
704  0
705  0
706  0
707  0
708  0
709  0
710  0
711  0
712  0
713  0
714  0
715  0
716  0
717  0
718  0
719  0
720  0
721  0
722  0
723  0
724  0
725  0
726  0
727  0
728  0
729  0
730  0
731  0
732  0
733  0
734  0
735  0
736  0
737  0
738  0
739  0
740  0
741  0
742  0
743  0
744  0
745  0
746  0
747  0
748  0
749  0
750  0
751  0
752  0
753  0
754  0
755  0
756  0
757  0
758  0
759  0
760  0
761  0
762  0
763  0
764  0
765  0
766  0
767  0
768  0
769  0
770  0
771  0
772  0
773  0
774  0
775  0
776  0
777  0
778  0
779  0
780  0
781  0
782  0
783  0
784  0
785  0
786  0
787  0
788  0
789  0
790  0
791  0
792  0
793  0
794  0
795  0
796  0
797  0
798  0
799  0
800  0
801  0
802  0
803  0
804  0
805  0
806  0
807  0
808  0
809  0
810  0
811  0
812  0
813  0
814  0
815  0
816  0
817  0
818  0
819  0
820  0
821  0
822  0
823  0
824  0
825  0
826  0
827  0
828  0
829  0
830  0
831  0
832  0
833  0
834  0
835  0
836  0
837  0
838  0
839  0
840  0
841  0
842  0
843  0
844  0
845  0
846  0
847  0
848  0
849  0
850  0
851  0
852  0
853  0
854  0
855  0
856  0
857  0
858  0
859  0
860  0
861  0
862  0
863  0
864  0
865  0
866  0
867  0
868  0
869  0
870  0
871  0
872  0
873  0
874  0
875  0
876  0
877  0
878  0
879  0
880  0
881  0
882  0
883  0
884  0
885  0
886  0
887  0
888  0
889  0
890  0
891  0
892  0
893  0
894  0
895  0
896  0
897  0
898  0
899  0
900  0
901  0
902  0
903  0
904  0
905  0
906  0
907  0
908  0
909  0
910  0
911  0
912  0
913  0
914  0
915  0
916  0
917  0
918  0
919  0
920  0
921  0
922  0
923  0
924  0
925  0
926  0
927  0
928  0
929  0
930  0
931  0
932  0
933  0
934  0
935  0
936  0
937  0
938  0
939  0
940  0
941  0
942  0
943  0
944  0
945  0
946  0
947  0
948  0
949  0
950  0
951  0
952  0
953  0
954  0
955  0
956  0
957  0
958  0
959  0
960  0
961  0
962  0
963  0
964  0
965  0
966  0
967  0
968  0
969  0
970  0
971  0
972  0
973  0
974  0
975  0
976  0
977  0
978  0
979  0
980  0
981  0
982  0
983  0
984  0
985  0
986  0
987  0
988  0
989  0
990  0
991  0
992  0
993  0
994  0
995  0
996  0
997  0
998  0
999  0
1000  0
1001  0
1002  0
1003  0
1004  0
1005  0
1006  0
1007  0
1008  0
1009  0
1010  0
1011  0
1012  0
1013  0
1014  0
1015  0
1016  0
1017  0
1018  0
1019  0
1020  0
1021  0
1022  0
1023  0
1024  0
1025  0
1026  0
1027  0
1028  0
1029  0
1030  0
1031  0
1032  0
1033  0
1034  0
1035  0
1036  0
1037  0
1038  0
1039  0
1040  0
1041  0
1042  0
1043  0
1044  0
1045  0
1046  0
1047  0
1048  0
1049  0
1050  0
1051  0
1052  0
1053  0
1054  0
1055  0
1056  0
1057  0
1058  0
1059  0
1060  0
1061  0
1062  0
1063  0
1064  0
1065  0
1066  0
1067  0
1068  0
1069  0
1070  0
1071  0
1072  0
1073  0
1074  0
1075  0
1076  0
1077  0
1078  0
1079  0
1080  0
1081  0
1082  0
1083  0
1084  0
1085  0
1086  0
1087  0
1088  0
1089  0
1090  0
1091  0
1092  0
1093  0
1094  0
1095  0
1096  0
1097  0
1098  0
1099  0
1100  0
1101  0
1102  0
1103  0
1104  0
1105  0
1106  0
1107  0
1108  0
1109  0
1110  0
1111  0
1112  0
1113  0
1114  0
1115  0
1116  0
1117  0
1118  0
1119  0
1120  0
1121  0
1122  0
1123  0
1124  0
1125  0
1126  0
1127  0
1128  0
1129  0
1130  0
1131  0
1132  0
1133  0
1134  0
1135  0
1136  0
1137  0
1138  0
1139  0
1140  0
1141  0
1142  0
1143  0
1144  0
1145  0
1146  0
1147  0
1148  0
1149  0
1150  0
1151  0
1152  0
1153  0
1154  0
1155  0
1156  0
1157  0
1158  0
1159  0
1160  0
1161  0
1162  0
1163  0
1164  0
1165  0
1166  0
1167  0
1168  0
1169  0
1170  0
1171  0
1172  0
1173  0
1174  0
1175  0
1176  0
1177  0
1178  0
1179  0
1180  0
1181  0
1182  0
1183  0
1184  0
1185  0
1186  0
1187  0
1188  0
1189  0
1190  0
1191  0
1192  0
1193  0
1194  0
1195  0
1196  0
1197  0
1198  0
1199  0
1200  0
1201  0
1202  0
1203  0
1204  0
1205  0
1206  0
1207  0
1208  0
1209  0
1210  0
1211  0
1212  0
1213  0
1214  0
1215  0
1216  0
1217  0
1218  0
1219  0
1220  0
1221  0
1222  0
1223  0
1224  0
1225  0
1226  0
1227  0
1228  0
1229  0
1230  0
1231  0
1232  0
1233  0
1234  0
1235  0
1236  0
1237  0
1238  0
1239  0
1240  0
1241  0
1242  0
1243  0
1244  0
1245  0
1246  0
1247  0
1248  0
1249  0
1250  0
1251  0
1252  0
1253  0
1254  0
1255  0
1256  0
1257  0
1258  0
1259  0
1260  0
1261  0
1262  0
1263  0
1264  0
1265  0
1266  0
1267  0
1268  0
1269  0
1270  0
1271  0
1272  0
1273  0
1274  0
1275  0
1276  0
1277  0
1278  0
1279  0
1280  0
1281  0
1282  0
1283  0
1284  0
1285  0
1286  0
1287  0
1288  0
1289  0
1290  0
1291  0
1292  0
1293  0
1294  0
1295  0
1296  0
1297  0
1298  0
1299  0
1300  0
1301  0
1302  0
1303  0
1304  0
1305  0
1306  0
1307  0
1308  0
1309  0
1310  0
1311  0
1312  0
1313  0
1314  0
1315  0
1316  0
1317  0
1318  0
1319  0
1320  0
1321  0
1322  0
1323  0
1324  0
1325  0
1326  0
1327  0
1328  0
1329  0
1330  0
1331  0
1332  0
1333  0
1334  0
1335  0
1336  0
1337  0
1338  0
1339  0
1340  0
1341  0
1342  0
1343  0
1344  0
1345  0
1346  0
1347  0
1348  0
1349  0
1350  0
1351  0
1352  0
1353  0
1354  0
1355  0
1356  0
1357  0
1358  0
1359  0
1360  0
1361  0
1362  0
1363  0
1364  0
1365  0
1366  0
1367  0
1368  0
1369  0
1370  0
1371  0
1372  0
1373  0
1374  0
1375  0
1376  0
1377  0
1378  0
1379  0
1380  0
1381  0
1382  0
1383  0
1384  0
1385  0
1386  0
1387  0
1388  0
1389  0
1390  0
1391  0
1392  0
1393  0
1394  0
1395  0
1396  0
1397  0
1398  0
1399  0
1400  0
1401  0
1402  0
1403  0
1404  0
1405  0
1406  0
1407  0
1408  0
1409  0
1410  0
1411  0
1412  0
1413  0
1414  0
1415  0
1416  0
1417  0
1418  0
1419  0
1420  0
1421  0
1422  0
1423  0
1424  0
1425  0
1426  0
1427  0
1428  0
1429  0
1430  0
1431  0
1432  0
1433  0
1434  0
1435  0
1436  0
1437  0
1438  0
1439  0
1440  0
1441  0
1442  0
1443  0
1444  0
1445  0
1446  0
1447  0
1448  0
1449  0
1450  0
1451  0
1452  0
1453  0
1454  0
1455  0
1456  0
1457  0
1458  0
1459  0
1460  0
1461  0
1462  0
1463  0
1464  0
1465  0
1466  0
1467  0
1468  0
1469  0
1470  0
1471  0
1472  0
1473  0
1474  0
1475  0
1476  0
1477  0
1478  0
1479  0
1480  0
1481  0
1482  0
1483  0
1484  0
1485  0
1486  0
1487  0
1488  0
1489  0
1490  0
1491  0
1492  0
1493  0
1494  0
1495  0
1496  0
1497  0
1498  0
1499  0
1500  0
1501  0
1502  0
1503  0
1504  0
1505  0
1506  0
1507  0
1508  0
1509  0
1510  0
1511  0
1512  0
1513  0
1514  0
1515  0
1516  0
1517  0
1518  0
1519  0
1520  0
1521  0
1522  0
1523  0
1524  0
1525  0
1526  0
1527  0
1528  0
1529  0
1530  0
1531  0
1532  0
1533  0
1534  0
1535  0
1536  0
1537  0
1538  0
1539  0
1540  0
1541  0
1542  0
1543  0
1544  0
1545  0
1546  0
1547  0
1548  0
1549  0
1550  0
1551  0
1552  0
1553  0
1554  0
1555  0
1556  0
1557  0
1558  0
1559  0
1560  0
1561  0
1562  0
1563  0
1564  0
1565  0
1566  0
1567  0
1568  0
1569  0
1570  0
1571  0
1572  0
1573  0
1574  0
1575  0
1576  0
1577  0
1578  0
1579  0
1580  0
1581  0
1582  0
1583  0
1584  0
1585  0
1586  0
1587  0
1588  0
1589  0
1590  0
1591  0
1592  0
1593  0
1594  0
1595  0
1596  0
1597  0
1598  1
1599  1
1600  6
1601  24
1602  48
1603  162
1604  319
1605  481
1606  590
1607  751
1608  699
1609  732
1610  713
1611  733
1612  730
1613  694
1614  700
1615  702
1616  674
1617  705
1618  662
1619  677
1620  701
1621  660
1622  629
1623  589
1624  626
1625  630
1626  597
1627  626
1628  595
1629  570
1630  529
1631  511
1632  497
1633  506
1634  550
1635  469
1636  476
1637  438
1638  427
1639  422
1640  426
1641  394
1642  387
1643  376
1644  368
1645  355
1646  391
1647  326
1648  296
1649  316
1650  272
1651  306
1652  247
1653  269
1654  270
1655  226
1656  222
1657  265
1658  240
1659  198
1660  202
1661  181
1662  173
1663  194
1664  164
1665  181
1666  160
1667  147
1668  147
1669  138
1670  170
1671  125
1672  122
1673  119
1674  108
1675  118
1676  105
1677  126
1678  107
1679  112
1680  86
1681  81
1682  92
1683  82
1684  76
1685  67
1686  72
1687  67
1688  65
1689  59
1690  70
1691  60
1692  52
1693  58
1694  48
1695  38
1696  47
1697  44
1698  47
1699  56
1700  50
1701  46
1702  47
1703  46
1704  26
1705  41
1706  37
1707  34
1708  32
1709  28
1710  35
1711  31
1712  34
1713  21
1714  24
1715  25
1716  22
1717  23
1718  27
1719  28
1720  26
1721  30
1722  23
1723  26
1724  22
1725  19
1726  27
1727  14
1728  24
1729  22
1730  19
1731  22
1732  16
1733  20
1734  22
1735  6
1736  15
1737  25
1738  11
1739  16
1740  20
1741  19
1742  16
1743  15
1744  18
1745  15
1746  13
1747  10
1748  14
1749  22
1750  9
1751  15
1752  20
1753  14
1754  13
1755  7
1756  14
1757  20
1758  14
1759  11
1760  19
1761  17
1762  15
1763  12
1764  19
1765  13
1766  12
1767  9
1768  13
1769  7
1770  18
1771  11
1772  15
1773  15
1774  16
1775  13
1776  19
1777  16
1778  21
1779  13
1780  15
1781  12
1782  10
1783  20
1784  12
1785  18
1786  22
1787  15
1788  15
1789  17
1790  19
1791  9
1792  15
1793  8
1794  11
1795  17
1796  12
1797  15
1798  19
1799  19
1800  11
1801  20
1802  13
1803  18
1804  25
1805  22
1806  11
1807  13
1808  20
1809  11
1810  21
1811  16
1812  21
1813  23
1814  16
1815  17
1816  22
1817  17
1818  18
1819  26
1820  11
1821  15
1822  22
1823  16
1824  20
1825  15
1826  20
1827  14
1828  23
1829  18
1830  26
1831  17
1832  31
1833  26
1834  28
1835  21
1836  16
1837  23
1838  20
1839  22
1840  22
1841  28
1842  17
1843  29
1844  40
1845  28
1846  29
1847  26
1848  36
1849  32
1850  34
1851  20
1852  28
1853  29
1854  34
1855  41
1856  35
1857  32
1858  39
1859  29
1860  30
1861  37
1862  27
1863  41
1864  26
1865  39
1866  44
1867  28
1868  39
1869  34
1870  29
1871  48
1872  37
1873  46
1874  47
1875  37
1876  28
1877  44
1878  40
1879  43
1880  49
1881  58
1882  42
1883  32
1884  39
1885  53
1886  42
1887  47
1888  46
1889  40
1890  56
1891  43
1892  47
1893  54
1894  49
1895  47
1896  52
1897  46
1898  48
1899  44
1900  62
1901  41
1902  51
1903  40
1904  59
1905  43
1906  54
1907  45
1908  47
1909  54
1910  63
1911  43
1912  48
1913  47
1914  61
1915  51
1916  48
1917  49
1918  59
1919  64
1920  49
1921  61
1922  62
1923  69
1924  56
1925  62
1926  57
1927  62
1928  62
1929  51
1930  60
1931  74
1932  56
1933  69
1934  51
1935  61
1936  66
1937  58
1938  52
1939  55
1940  65
1941  51
1942  49
1943  63
1944  55
1945  52
1946  59
1947  65
1948  56
1949  63
1950  62
1951  69
1952  69
1953  73
1954  62
1955  62
1956  60
1957  63
1958  58
1959  59
1960  62
1961  49
1962  55
1963  62
1964  69
1965  51
1966  45
1967  62
1968  59
1969  36
1970  62
1971  63
1972  66
1973  59
1974  57
1975  67
1976  66
1977  64
1978  64
1979  58
1980  76
1981  65
1982  60
1983  63
1984  69
1985  77
1986  52
1987  65
1988  66
1989  84
1990  53
1991  53
1992  51
1993  55
1994  59
1995  65
1996  62
1997  58
1998  67
1999  47
2000  60
2001  62
2002  65
2003  67
2004  61
2005  64
2006  56
2007  66
2008  47
2009  52
2010  60
2011  53
2012  44
2013  64
2014  54
2015  66
2016  53
2017  63
2018  63
2019  56
2020  56
2021  46
2022  61
2023  51
2024  58
2025  57
2026  49
2027  44
2028  51
2029  57
2030  56
2031  60
2032  57
2033  45
2034  52
2035  77
2036  68
2037  58
2038  44
2039  60
2040  46
2041  49
2042  56
2043  42
2044  55
2045  45
2046  48
2047  53
2048  42
2049  36
2050  45
2051  53
2052  56
2053  54
2054  52
2055  56
2056  43
2057  45
2058  46
2059  55
2060  51
2061  51
2062  40
2063  43
2064  36
2065  37
2066  51
2067  50
2068  37
2069  40
2070  44
2071  36
2072  58
2073  42
2074  40
2075  29
2076  33
2077  53
2078  36
2079  43
2080  42
2081  41
2082  42
2083  43
2084  37
2085  36
2086  40
2087  36
2088  35
2089  45
2090  26
2091  46
2092  35
2093  44
2094  36
2095  32
2096  34
2097  38
2098  37
2099  29
2100  35
2101  40
2102  41
2103  37
2104  39
2105  39
2106  44
2107  33
2108  44
2109  38
2110  38
2111  33
2112  33
2113  34
2114  35
2115  28
2116  29
2117  28
2118  28
2119  40
2120  36
2121  32
2122  32
2123  30
2124  28
2125  18
2126  32
2127  36
2128  25
2129  35
2130  27
2131  30
2132  33
2133  28
2134  33
2135  31
2136  37
2137  35
2138  33
2139  32
2140  30
2141  32
2142  39
2143  34
2144  47
2145  32
2146  25
2147  18
2148  28
2149  20
2150  30
2151  24
2152  30
2153  26
2154  21
2155  33
2156  25
2157  28
2158  26
2159  30
2160  29
2161  32
2162  24
2163  27
2164  25
2165  35
2166  29
2167  17
2168  34
2169  32
2170  19
2171  23
2172  29
2173  30
2174  28
2175  30
2176  21
2177  21
2178  34
2179  25
2180  21
2181  28
2182  27
2183  24
2184  27
2185  20
2186  21
2187  20
2188  17
2189  30
2190  21
2191  18
2192  23
2193  17
2194  24
2195  16
2196  26
2197  29
2198  24
2199  25
2200  22
2201  15
2202  18
2203  26
2204  20
2205  22
2206  26
2207  20
2208  34
2209  15
2210  14
2211  20
2212  20
2213  15
2214  13
2215  21
2216  24
2217  22
2218  23
2219  19
2220  19
2221  18
2222  15
2223  25
2224  21
2225  14
2226  19
2227  17
2228  25
2229  24
2230  12
2231  15
2232  16
2233  17
2234  20
2235  23
2236  22
2237  15
2238  19
2239  13
2240  15
2241  7
2242  17
2243  20
2244  23
2245  13
2246  20
2247  14
2248  19
2249  19
2250  19
2251  17
2252  21
2253  15
2254  16
2255  12
2256  12
2257  15
2258  19
2259  22
2260  19
2261  13
2262  15
2263  17
2264  14
2265  12
2266  26
2267  17
2268  20
2269  12
2270  15
2271  16
2272  13
2273  12
2274  11
2275  14
2276  16
2277  7
2278  12
2279  13
2280  10
2281  11
2282  20
2283  5
2284  11
2285  15
2286  10
2287  10
2288  8
2289  10
2290  10
2291  13
2292  10
2293  7
2294  6
2295  6
2296  16
2297  11
2298  12
2299  10
2300  10
2301  14
2302  8
2303  16
2304  10
2305  10
2306  10
2307  13
2308  9
2309  6
2310  5
2311  12
2312  7
2313  10
2314  12
2315  10
2316  10
2317  10
2318  10
2319  10
2320  18
2321  8
2322  13
2323  10
2324  7
2325  8
2326  11
2327  13
2328  13
2329  6
2330  6
2331  15
2332  6
2333  12
2334  10
2335  8
2336  10
2337  4
2338  8
2339  4
2340  13
2341  6
2342  11
2343  9
2344  5
2345  5
2346  9
2347  12
2348  9
2349  6
2350  8
2351  10
2352  6
2353  12
2354  8
2355  8
2356  10
2357  10
2358  3
2359  4
2360  4
2361  8
2362  5
2363  10
2364  4
2365  11
2366  4
2367  10
2368  1
2369  9
2370  2
2371  3
2372  4
2373  6
2374  12
2375  10
2376  7
2377  9
2378  7
2379  8
2380  8
2381  6
2382  8
2383  5
2384  7
2385  6
2386  5
2387  5
2388  8
2389  9
2390  3
2391  10
2392  6
2393  0
2394  5
2395  7
2396  6
2397  8
2398  6
2399  2
2400  6
2401  4
2402  6
2403  5
2404  4
2405  3
2406  12
2407  2
2408  8
2409  9
2410  5
2411  7
2412  7
2413  9
2414  4
2415  6
2416  10
2417  2
2418  6
2419  4
2420  4
2421  2
2422  7
2423  2
2424  8
2425  5
2426  5
2427  5
2428  5
2429  5
2430  6
2431  7
2432  4
2433  8
2434  4
2435  4
2436  5
2437  0
2438  3
2439  2
2440  5
2441  4
2442  6
2443  5
2444  5
2445  3
2446  3
2447  3
2448  4
2449  4
2450  5
2451  9
2452  8
2453  3
2454  8
2455  4
2456  4
2457  4
2458  2
2459  3
2460  7
2461  2
2462  3
2463  5
2464  8
2465  2
2466  7
2467  8
2468  0
2469  4
2470  4
2471  2
2472  0
2473  2
2474  3
2475  3
2476  6
2477  3
2478  5
2479  3
2480  3
2481  5
2482  9
2483  6
2484  7
2485  2
2486  9
2487  3
2488  1
2489  3
2490  5
2491  3
2492  5
2493  0
2494  0
2495  4
2496  5
2497  2
2498  4
2499  3
2500  3
2501  3
2502  5
2503  4
2504  5
2505  4
2506  1
2507  1
2508  2
2509  0
2510  2
2511  3
2512  8
2513  4
2514  3
2515  3
2516  4
2517  2
2518  3
2519  6
2520  4
2521  1
2522  2
2523  0
2524  3
2525  2
2526  2
2527  6
2528  2
2529  3
2530  3
2531  0
2532  0
2533  2
2534  4
2535  3
2536  1
2537  3
2538  2
2539  1
2540  3
2541  5
2542  2
2543  3
2544  4
2545  4
2546  3
2547  4
2548  2
2549  3
2550  6
2551  3
2552  0
2553  6
2554  4
2555  1
2556  4
2557  2
2558  2
2559  2
2560  1
2561  4
2562  3
2563  0
2564  4
2565  4
2566  2
2567  5
2568  4
2569  3
2570  6
2571  1
2572  2
2573  2
2574  1
2575  3
2576  1
2577  3
2578  2
2579  3
2580  3
2581  3
2582  3
2583  0
2584  2
2585  0
2586  1
2587  5
2588  0
2589  2
2590  0
2591  5
2592  1
2593  2
2594  3
2595  5
2596  1
2597  6
2598  3
2599  0
2600  0
2601  2
2602  4
2603  1
2604  1
2605  3
2606  5
2607  0
2608  4
2609  3
2610  3
2611  3
2612  1
2613  4
2614  2
2615  2
2616  0
2617  2
2618  2
2619  4
2620  1
2621  0
2622  0
2623  2
2624  2
2625  1
2626  1
2627  0
2628  3
2629  2
2630  3
2631  0
2632  2
2633  1
2634  3
2635  1
2636  2
2637  1
2638  2
2639  5
2640  1
2641  1
2642  4
2643  1
2644  1
2645  3
2646  2
2647  1
2648  2
2649  2
2650  2
2651  1
2652  2
2653  3
2654  0
2655  4
2656  2
2657  2
2658  1
2659  0
2660  1
2661  0
2662  1
2663  2
2664  2
2665  0
2666  1
2667  2
2668  0
2669  2
2670  3
2671  1
2672  0
2673  1
2674  3
2675  0
2676  1
2677  0
2678  2
2679  1
2680  1
2681  2
2682  1
2683  2
2684  1
2685  3
2686  1
2687  2
2688  1
2689  2
2690  0
2691  0
2692  0
2693  0
2694  1
2695  1
2696  2
2697  2
2698  2
2699  0
2700  1
2701  1
2702  3
2703  1
2704  1
2705  0
2706  0
2707  2
2708  0
2709  2
2710  4
2711  2
2712  0
2713  0
2714  2
2715  1
2716  3
2717  2
2718  1
2719  4
2720  0
2721  2
2722  0
2723  1
2724  1
2725  0
2726  2
2727  1
2728  1
2729  6
2730  3
2731  1
2732  3
2733  1
2734  2
2735  0
2736  1
2737  1
2738  2
2739  4
2740  2
2741  0
2742  2
2743  1
2744  2
2745  2
2746  1
2747  2
2748  0
2749  1
2750  1
2751  2
2752  1
2753  1
2754  1
2755  0
2756  2
2757  0
2758  1
2759  2
2760  1
2761  0
2762  1
2763  1
2764  1
2765  0
2766  1
2767  0
2768  2
2769  2
2770  0
2771  1
2772  2
2773  2
2774  0
2775  2
2776  1
2777  0
2778  2
2779  1
2780  1
2781  1
2782  1
2783  1
2784  2
2785  2
2786  2
2787  0
2788  2
2789  1
2790  0
2791  1
2792  3
2793  0
2794  1
2795  1
2796  0
2797  1
2798  1
2799  0
2800  2
2801  0
2802  1
2803  1
2804  1
2805  1
2806  1
2807  0
2808  0
2809  2
2810  0
2811  1
2812  1
2813  1
2814  0
2815  2
2816  2
2817  1
2818  0
2819  2
2820  2
2821  1
2822  1
2823  1
2824  0
2825  0
2826  1
2827  2
2828  0
2829  1
2830  0
2831  0
2832  3
2833  1
2834  1
2835  0
2836  2
2837  1
2838  0
2839  0
2840  0
2841  0
2842  0
2843  2
2844  1
2845  0
2846  1
2847  0
2848  0
2849  3
2850  1
2851  2
2852  0
2853  0
2854  0
2855  1
2856  1
2857  0
2858  1
2859  2
2860  2
2861  0
2862  0
2863  3
2864  0
2865  0
2866  1
2867  1
2868  0
2869  0
2870  0
2871  0
2872  1
2873  0
2874  2
2875  0
2876  0
2877  3
2878  0
2879  0
2880  1
2881  1
2882  0
2883  0
2884  1
2885  0
2886  1
2887  1
2888  1
2889  1
2890  1
2891  1
2892  0
2893  1
2894  0
2895  0
2896  1
2897  1
2898  1
2899  0
2900  0
2901  0
2902  1
2903  1
2904  1
2905  4
2906  1
2907  1
2908  2
2909  1
2910  1
2911  2
2912  2
2913  1
2914  0
2915  0
2916  1
2917  1
2918  0
2919  1
2920  0
2921  0
2922  0
2923  2
2924  0
2925  0
2926  1
2927  2
2928  0
2929  0
2930  0
2931  0
2932  1
2933  0
2934  0
2935  0
2936  0
2937  1
2938  0
2939  1
2940  0
2941  0
2942  0
2943  1
2944  1
2945  0
2946  1
2947  0
2948  0
2949  0
2950  1
2951  0
2952  1
2953  0
2954  1
2955  0
2956  0
2957  1
2958  1
2959  0
2960  0
2961  0
2962  0
2963  4
2964  1
2965  1
2966  0
2967  0
2968  0
2969  0
2970  3
2971  2
2972  0
2973  1
2974  0
2975  0
2976  1
2977  0
2978  0
2979  0
2980  0
2981  3
2982  0
2983  0
2984  1
2985  0
2986  3
2987  0
2988  1
2989  1
2990  2
2991  0
2992  0
2993  2
2994  0
2995  0
2996  0
2997  2
2998  1
2999  2
3000  0
3001  0
3002  0
3003  1
3004  1
3005  0
3006  1
3007  1
3008  1
3009  0
3010  0
3011  0
3012  0
3013  1
3014  2
3015  0
3016  0
3017  0
3018  0
3019  1
3020  1
3021  0
3022  0
3023  0
3024  1
3025  1
3026  1
3027  1
3028  0
3029  1
3030  3
3031  1
3032  1
3033  1
3034  0
3035  0
3036  0
3037  0
3038  0
3039  0
3040  1
3041  1
3042  2
3043  1
3044  0
3045  0
3046  0
3047  0
3048  1
3049  1
3050  1
3051  0
3052  2
3053  1
3054  1
3055  0
3056  2
3057  0
3058  0
3059  1
3060  0
3061  0
3062  3
3063  3
3064  0
3065  2
3066  0
3067  0
3068  1
3069  0
3070  2
3071  0
3072  0
3073  1
3074  3
3075  1
3076  0
3077  1
3078  0
3079  0
3080  0
3081  1
3082  0
3083  1
3084  0
3085  0
3086  0
3087  2
3088  1
3089  0
3090  0
3091  0
3092  1
3093  1
3094  0
3095  0
3096  0
3097  0
3098  1
3099  0
3100  1
3101  0
3102  0
3103  1
3104  2
3105  1
3106  1
3107  0
3108  2
3109  0
3110  2
3111  0
3112  1
3113  0
3114  0
3115  0
3116  0
3117  1
3118  0
3119  2
3120  2
3121  0
3122  1
3123  0
3124  0
3125  0
3126  2
3127  0
3128  0
3129  0
3130  1
3131  0
3132  0
3133  1
3134  1
3135  1
3136  0
3137  1
3138  0
3139  0
3140  1
3141  0
3142  0
3143  0
3144  0
3145  0
3146  1
3147  0
3148  0
3149  0
3150  2
3151  0
3152  0
3153  0
3154  3
3155  0
3156  0
3157  0
3158  0
3159  0
3160  0
3161  1
3162  0
3163  0
3164  2
3165  1
3166  0
3167  0
3168  1
3169  1
3170  1
3171  1
3172  1
3173  1
3174  1
3175  0
3176  1
3177  0
3178  0
3179  1
3180  0
3181  1
3182  0
3183  0
3184  1
3185  0
3186  2
3187  0
3188  0
3189  1
3190  0
3191  1
3192  0
3193  1
3194  1
3195  0
3196  0
3197  1
3198  1
3199  1
3200  1
3201  1
3202  0
3203  0
3204  0
3205  0
3206  1
3207  0
3208  1
3209  0
3210  0
3211  1
3212  0
3213  0
3214  0
3215  0
3216  0
3217  1
3218  0
3219  0
3220  0
3221  1
3222  1
3223  0
3224  0
3225  0
3226  0
3227  0
3228  1
3229  0
3230  1
3231  2
3232  0
3233  0
3234  2
3235  1
3236  0
3237  0
3238  0
3239  0
3240  0
3241  0
3242  1
3243  0
3244  1
3245  0
3246  1
3247  0
3248  0
3249  2
3250  0
3251  0
3252  2
3253  0
3254  0
3255  0
3256  1
3257  1
3258  1
3259  1
3260  0
3261  1
3262  0
3263  0
3264  0
3265  0
3266  0
3267  0
3268  0
3269  1
3270  0
3271  0
3272  0
3273  0
3274  0
3275  1
3276  0
3277  0
3278  1
3279  3
3280  0
3281  0
3282  1
3283  0
3284  1
3285  1
3286  0
3287  1
3288  0
3289  0
3290  0
3291  0
3292  0
3293  0
3294  0
3295  0
3296  0
3297  0
3298  0
3299  0
3300  0
3301  0
3302  1
3303  0
3304  0
3305  1
3306  1
3307  0
3308  0
3309  0
3310  0
3311  0
3312  1
3313  0
3314  0
3315  0
3316  0
3317  0
3318  0
3319  0
3320  1
3321  0
3322  0
3323  1
3324  0
3325  0
3326  0
3327  0
3328  0
3329  0
3330  0
3331  0
3332  0
3333  1
3334  1
3335  0
3336  0
3337  0
3338  0
3339  0
3340  0
3341  1
3342  0
3343  0
3344  0
3345  0
3346  0
3347  0
3348  1
3349  0
3350  0
3351  0
3352  0
3353  0
3354  2
3355  1
3356  0
3357  0
3358  0
3359  0
3360  0
3361  0
3362  1
3363  1
3364  0
3365  0
3366  1
3367  1
3368  0
3369  0
3370  0
3371  1
3372  0
3373  0
3374  1
3375  0
3376  0
3377  0
3378  0
3379  0
3380  2
3381  0
3382  0
3383  0
3384  1
3385  0
3386  0
3387  0
3388  0
3389  0
3390  0
3391  0
3392  0
3393  0
3394  1
3395  0
3396  0
3397  0
3398  0
3399  0
3400  0
3401  1
3402  1
3403  0
3404  0
3405  0
3406  1
3407  0
3408  0
3409  0
3410  0
3411  0
3412  2
3413  0
3414  2
3415  1
3416  1
3417  0
3418  0
3419  0
3420  1
3421  0
3422  0
3423  0
3424  0
3425  0
3426  0
3427  0
3428  0
3429  0
3430  0
3431  0
3432  0
3433  1
3434  1
3435  0
3436  0
3437  1
3438  0
3439  0
3440  0
3441  0
3442  0
3443  0
3444  2
3445  1
3446  1
3447  0
3448  1
3449  1
3450  1
3451  0
3452  0
3453  0
3454  0
3455  1
3456  0
3457  1
3458  1
3459  0
3460  0
3461  0
3462  0
3463  0
3464  0
3465  2
3466  0
3467  0
3468  0
3469  0
3470  0
3471  2
3472  0
3473  0
3474  0
3475  1
3476  1
3477  0
3478  0
3479  0
3480  0
3481  1
3482  2
3483  0
3484  1
3485  0
3486  1
3487  0
3488  0
3489  0
3490  0
3491  1
3492  0
3493  0
3494  0
3495  1
3496  0
3497  0
3498  1
3499  1
3500  1
3501  0
3502  2
3503  0
3504  0
3505  0
3506  0
3507  0
3508  0
3509  0
3510  0
3511  1
3512  0
3513  2
3514  0
3515  1
3516  0
3517  0
3518  0
3519  0
3520  0
3521  0
3522  1
3523  0
3524  0
3525  0
3526  0
3527  0
3528  0
3529  0
3530  0
3531  1
3532  0
3533  0
3534  0
3535  0
3536  0
3537  0
3538  1
3539  0
3540  0
3541  0
3542  0
3543  0
3544  0
3545  0
3546  0
3547  0
3548  0
3549  0
3550  1
3551  0
3552  0
3553  0
3554  0
3555  1
3556  2
3557  0
3558  0
3559  0
3560  1
3561  0
3562  0
3563  1
3564  0
3565  0
3566  0
3567  1
3568  3
3569  0
3570  0
3571  1
3572  0
3573  0
3574  0
3575  1
3576  1
3577  0
3578  1
3579  0
3580  1
3581  0
3582  0
3583  1
3584  1
3585  1
3586  1
3587  0
3588  1
3589  1
3590  0
3591  0
3592  0
3593  0
3594  0
3595  0
3596  0
3597  2
3598  0
3599  0
3600  0
3601  0
3602  0
3603  0
3604  0
3605  1
3606  0
3607  0
3608  1
3609  0
3610  0
3611  0
3612  0
3613  0
3614  0
3615  0
3616  1
3617  0
3618  0
3619  0
3620  0
3621  0
3622  0
3623  0
3624  1
3625  1
3626  0
3627  0
3628  0
3629  0
3630  0
3631  0
3632  0
3633  1
3634  1
3635  0
3636  1
3637  3
3638  0
3639  0
3640  0
3641  0
3642  1
3643  0
3644  1
3645  0
3646  0
3647  1
3648  0
3649  3
3650  0
3651  1
3652  0
3653  0
3654  0
3655  0
3656  1
3657  0
3658  0
3659  0
3660  0
3661  0
3662  1
3663  0
3664  0
3665  1
3666  0
3667  0
3668  1
3669  0
3670  0
3671  1
3672  0
3673  0
3674  1
3675  0
3676  0
3677  0
3678  0
3679  0
3680  3
3681  0
3682  2
3683  1
3684  1
3685  1
3686  0
3687  0
3688  0
3689  0
3690  2
3691  0
3692  0
3693  0
3694  0
3695  0
3696  0
3697  1
3698  0
3699  0
3700  1
3701  0
3702  0
3703  0
3704  0
3705  0
3706  0
3707  2
3708  0
3709  0
3710  0
3711  0
3712  1
3713  0
3714  0
3715  1
3716  0
3717  1
3718  1
3719  0
3720  0
3721  0
3722  0
3723  0
3724  0
3725  0
3726  0
3727  1
3728  0
3729  0
3730  1
3731  0
3732  0
3733  0
3734  0
3735  0
3736  0
3737  1
3738  0
3739  1
3740  0
3741  0
3742  0
3743  0
3744  0
3745  0
3746  0
3747  0
3748  0
3749  0
3750  0
3751  0
3752  1
3753  0
3754  1
3755  0
3756  1
3757  0
3758  0
3759  1
3760  1
3761  0
3762  0
3763  1
3764  0
3765  0
3766  1
3767  0
3768  0
3769  0
3770  1
3771  0
3772  0
3773  0
3774  0
3775  0
3776  0
3777  0
3778  1
3779  0
3780  0
3781  0
3782  0
3783  1
3784  0
3785  0
3786  0
3787  2
3788  0
3789  1
3790  0
3791  0
3792  0
3793  0
3794  0
3795  0
3796  0
3797  0
3798  1
3799  1
3800  0
3801  0
3802  0
3803  0
3804  2
3805  0
3806  1
3807  1
3808  0
3809  1
3810  0
3811  1
3812  0
3813  0
3814  1
3815  0
3816  1
3817  0
3818  1
3819  0
3820  0
3821  1
3822  0
3823  0
3824  0
3825  1
3826  0
3827  0
3828  0
3829  1
3830  1
3831  0
3832  0
3833  0
3834  0
3835  1
3836  0
3837  0
3838  1
3839  0
3840  0
3841  0
3842  0
3843  0
3844  0
3845  0
3846  0
3847  0
3848  0
3849  0
3850  0
3851  0
3852  0
3853  0
3854  0
3855  0
3856  0
3857  0
3858  0
3859  0
3860  0
3861  0
3862  0
3863  0
3864  0
3865  0
3866  0
3867  0
3868  0
3869  0
3870  0
3871  0
3872  0
3873  0
3874  0
3875  0
3876  0
3877  0
3878  0
3879  0
3880  0
3881  0
3882  0
3883  0
3884  0
3885  0
3886  0
3887  0
3888  0
3889  0
3890  0
3891  0
3892  0
3893  0
3894  0
3895  0
3896  0
3897  0
3898  0
3899  0
3900  0
3901  0
3902  0
3903  0
3904  0
3905  0
3906  0
3907  0
3908  0
3909  0
3910  0
3911  0
3912  0
3913  0
3914  0
3915  0
3916  0
3917  0
3918  0
3919  0
3920  0
3921  0
3922  0
3923  0
3924  0
3925  0
3926  0
3927  0
3928  0
3929  0
3930  0
3931  0
3932  0
3933  0
3934  0
3935  0
3936  0
3937  0
3938  0
3939  0
3940  0
3941  0
3942  0
3943  0
3944  0
3945  0
3946  0
3947  0
3948  0
3949  0
3950  0
3951  0
3952  0
3953  0
3954  0
3955  0
3956  0
3957  0
3958  0
3959  0
3960  0
3961  0
3962  0
3963  0
3964  0
3965  0
3966  0
3967  0
3968  0
3969  0
3970  0
3971  0
3972  0
3973  0
3974  0
3975  0
3976  0
3977  0
3978  0
3979  0
3980  0
3981  0
3982  0
3983  0
3984  0
3985  0
3986  0
3987  0
3988  0
3989  0
3990  0
3991  0
3992  0
3993  0
3994  0
3995  0
3996  0
3997  0
3998  0
3999  0
4000  0
4001  0
4002  0
4003  0
4004  0
4005  0
4006  0
4007  0
4008  0
4009  0
4010  0
4011  0
4012  0
4013  0
4014  0
4015  0
4016  0
4017  0
4018  0
4019  0
4020  0
4021  0
4022  0
4023  0
4024  0
4025  0
4026  0
4027  0
4028  0
4029  0
4030  0
4031  0
4032  0
4033  0
4034  0
4035  0
4036  0
4037  0
4038  0
4039  0
4040  0
4041  0
4042  0
4043  0
4044  0
4045  0
4046  0
4047  0
4048  0
4049  0
4050  0
4051  0
4052  0
4053  0
4054  0
4055  0
4056  0
4057  0
4058  0
4059  0
4060  0
4061  0
4062  0
4063  0
4064  0
4065  0
4066  0
4067  0
4068  0
4069  0
4070  0
4071  0
4072  0
4073  0
4074  0
4075  0
4076  0
4077  0
4078  0
4079  0
4080  0
4081  0
4082  0
4083  0
4084  0
4085  0
4086  0
4087  0
4088  0
4089  0
4090  0
4091  0
4092  0
4093  0
4094  0
4095  0
