0  0
1  0
2  0
3  0
4  0
5  0
6  0
7  0
8  0
9  0
10  0
11  0
12  0
13  0
14  0
15  0
16  0
17  0
18  0
19  0
20  0
21  0
22  0
23  0
24  0
25  0
26  0
27  0
28  0
29  0
30  0
31  0
32  0
33  0
34  0
35  0
36  0
37  0
38  0
39  0
40  0
41  0
42  0
43  0
44  0
45  0
46  0
47  0
48  0
49  0
50  0
51  0
52  0
53  0
54  0
55  0
56  0
57  0
58  0
59  0
60  0
61  0
62  0
63  0
64  0
65  0
66  0
67  0
68  0
69  0
70  0
71  0
72  0
73  0
74  0
75  0
76  0
77  0
78  0
79  0
80  0
81  0
82  0
83  0
84  0
85  0
86  0
87  0
88  0
89  0
90  0
91  0
92  0
93  0
94  0
95  0
96  0
97  0
98  0
99  0
100  0
101  0
102  0
103  0
104  0
105  0
106  0
107  0
108  0
109  0
110  0
111  0
112  0
113  0
114  0
115  0
116  0
117  0
118  0
119  0
120  0
121  0
122  0
123  0
124  0
125  0
126  0
127  0
128  0
129  0
130  0
131  0
132  0
133  0
134  0
135  0
136  0
137  0
138  0
139  0
140  0
141  0
142  0
143  0
144  0
145  0
146  0
147  0
148  0
149  0
150  0
151  0
152  0
153  0
154  0
155  0
156  0
157  0
158  0
159  0
160  0
161  0
162  0
163  0
164  0
165  0
166  0
167  0
168  0
169  0
170  0
171  0
172  0
173  0
174  0
175  0
176  0
177  0
178  0
179  0
180  0
181  0
182  0
183  0
184  0
185  0
186  0
187  0
188  0
189  0
190  0
191  0
192  0
193  0
194  0
195  0
196  0
197  0
198  0
199  0
200  0
201  0
202  0
203  0
204  0
205  0
206  0
207  0
208  0
209  0
210  0
211  0
212  0
213  0
214  0
215  0
216  0
217  0
218  0
219  0
220  0
221  0
222  0
223  0
224  0
225  0
226  0
227  0
228  0
229  0
230  0
231  0
232  0
233  0
234  0
235  0
236  0
237  0
238  0
239  0
240  0
241  0
242  0
243  0
244  0
245  0
246  0
247  0
248  0
249  0
250  0
251  0
252  0
253  0
254  0
255  0
256  0
257  0
258  0
259  0
260  0
261  0
262  0
263  0
264  0
265  0
266  0
267  0
268  0
269  0
270  0
271  0
272  0
273  0
274  0
275  0
276  0
277  0
278  0
279  0
280  0
281  0
282  0
283  0
284  0
285  0
286  0
287  0
288  0
289  0
290  0
291  0
292  0
293  0
294  0
295  0
296  0
297  0
298  0
299  0
300  0
301  0
302  0
303  0
304  0
305  0
306  0
307  0
308  0
309  0
310  0
311  0
312  0
313  0
314  0
315  0
316  0
317  0
318  0
319  0
320  0
321  0
322  0
323  0
324  0
325  0
326  0
327  0
328  0
329  0
330  0
331  0
332  0
333  0
334  0
335  0
336  0
337  0
338  0
339  0
340  0
341  0
342  0
343  0
344  0
345  0
346  0
347  0
348  0
349  0
350  0
351  0
352  0
353  0
354  0
355  0
356  0
357  0
358  0
359  0
360  0
361  0
362  0
363  0
364  0
365  0
366  0
367  0
368  0
369  0
370  0
371  0
372  0
373  0
374  0
375  0
376  0
377  0
378  0
379  0
380  0
381  0
382  0
383  0
384  0
385  0
386  0
387  0
388  0
389  0
390  0
391  0
392  0
393  0
394  0
395  0
396  0
397  0
398  0
399  0
400  0
401  0
402  0
403  0
404  0
405  0
406  0
407  0
408  0
409  0
410  0
411  0
412  0
413  0
414  0
415  0
416  0
417  0
418  0
419  0
420  0
421  0
422  0
423  0
424  0
425  0
426  0
427  0
428  0
429  0
430  0
431  0
432  0
433  0
434  0
435  0
436  0
437  0
438  0
439  0
440  0
441  0
442  0
443  0
444  0
445  0
446  0
447  0
448  0
449  0
450  0
451  0
452  0
453  0
454  0
455  0
456  0
457  0
458  0
459  0
460  0
461  0
462  0
463  0
464  0
465  0
466  0
467  0
468  0
469  0
470  0
471  0
472  0
473  0
474  0
475  0
476  0
477  0
478  0
479  0
480  0
481  0
482  0
483  0
484  0
485  0
486  0
487  0
488  0
489  0
490  0
491  0
492  0
493  0
494  0
495  0
496  0
497  0
498  0
499  0
500  0
501  0
502  0
503  0
504  0
505  0
506  0
507  0
508  0
509  0
510  0
511  0
512  0
513  0
514  0
515  0
516  0
517  0
518  0
519  0
520  0
521  0
522  0
523  0
524  0
525  0
526  0
527  0
528  0
529  0
530  0
531  0
532  0
533  0
534  0
535  0
536  0
537  0
538  0
539  0
540  0
541  0
542  0
543  0
544  0
545  0
546  0
547  0
548  0
549  0
550  0
551  0
552  0
553  0
554  0
555  0
556  0
557  0
558  0
559  0
560  0
561  0
562  0
563  0
564  0
565  0
566  0
567  0
568  0
569  0
570  0
571  0
572  0
573  0
574  0
575  0
576  0
577  0
578  0
579  0
580  0
581  0
582  0
583  0
584  0
585  0
586  0
587  0
588  0
589  0
590  0
591  0
592  0
593  0
594  0
595  0
596  0
597  0
598  0
599  0
600  0
601  0
602  0
603  0
604  0
605  0
606  0
607  0
608  0
609  0
610  0
611  0
612  0
613  0
614  0
615  0
616  0
617  0
618  0
619  0
620  0
621  0
622  0
623  0
624  0
625  0
626  0
627  0
628  0
629  0
630  0
631  0
632  0
633  0
634  0
635  0
636  0
637  0
638  0
639  0
640  0
641  0
642  0
643  0
644  0
645  0
646  0
647  0
648  0
649  0
650  0
651  0
652  0
653  0
654  0
655  0
656  0
657  0
658  0
659  0
660  0
661  0
662  0
663  0
664  0
665  0
666  0
667  0
668  0
669  0
670  0
671  0
672  0
673  0
674  0
675  0
676  0
677  0
678  0
679  0
680  0
681  0
682  0
683  0
684  0
685  0
686  0
687  0
688  0
689  0
690  0
691  0
692  0
693  0
694  0
695  0
696  0
697  0
698  0
699  0
700  0
701  0
702  0
703  0
704  0
705  0
706  0
707  0
708  0
709  0
710  0
711  0
712  0
713  0
714  0
715  0
716  0
717  0
718  0
719  0
720  0
721  0
722  0
723  0
724  0
725  0
726  0
727  0
728  0
729  0
730  0
731  0
732  0
733  0
734  0
735  0
736  0
737  0
738  0
739  0
740  0
741  0
742  0
743  0
744  0
745  0
746  0
747  0
748  0
749  0
750  0
751  0
752  0
753  0
754  0
755  0
756  0
757  0
758  0
759  0
760  0
761  0
762  0
763  0
764  0
765  0
766  0
767  0
768  0
769  0
770  0
771  0
772  0
773  0
774  0
775  0
776  0
777  0
778  0
779  0
780  0
781  0
782  0
783  0
784  0
785  0
786  0
787  0
788  0
789  0
790  0
791  0
792  0
793  0
794  0
795  0
796  0
797  0
798  0
799  0
800  0
801  0
802  0
803  0
804  0
805  0
806  0
807  0
808  0
809  0
810  0
811  0
812  0
813  0
814  0
815  0
816  0
817  0
818  0
819  0
820  0
821  0
822  0
823  0
824  0
825  0
826  0
827  0
828  0
829  0
830  0
831  0
832  0
833  0
834  0
835  0
836  0
837  0
838  0
839  0
840  0
841  0
842  0
843  0
844  0
845  0
846  0
847  0
848  0
849  0
850  0
851  0
852  0
853  0
854  0
855  0
856  0
857  0
858  0
859  0
860  0
861  0
862  0
863  0
864  0
865  0
866  0
867  0
868  0
869  0
870  0
871  0
872  0
873  0
874  0
875  0
876  0
877  0
878  0
879  0
880  0
881  0
882  0
883  0
884  0
885  0
886  0
887  0
888  0
889  0
890  0
891  0
892  0
893  0
894  0
895  0
896  0
897  0
898  0
899  0
900  0
901  0
902  0
903  0
904  0
905  0
906  0
907  0
908  0
909  0
910  0
911  0
912  0
913  0
914  0
915  0
916  0
917  0
918  0
919  0
920  0
921  0
922  0
923  0
924  0
925  0
926  0
927  0
928  0
929  0
930  0
931  0
932  0
933  0
934  0
935  0
936  0
937  0
938  0
939  0
940  0
941  0
942  0
943  0
944  0
945  0
946  0
947  0
948  0
949  0
950  0
951  0
952  0
953  0
954  0
955  0
956  0
957  0
958  0
959  0
960  0
961  0
962  0
963  0
964  0
965  0
966  0
967  0
968  0
969  0
970  0
971  0
972  0
973  0
974  0
975  0
976  0
977  0
978  0
979  0
980  0
981  0
982  0
983  0
984  0
985  0
986  0
987  0
988  0
989  0
990  0
991  0
992  0
993  0
994  0
995  0
996  0
997  0
998  0
999  0
1000  0
1001  0
1002  0
1003  0
1004  0
1005  0
1006  0
1007  0
1008  0
1009  0
1010  0
1011  0
1012  0
1013  0
1014  0
1015  0
1016  0
1017  0
1018  0
1019  0
1020  0
1021  0
1022  0
1023  0
1024  0
1025  0
1026  0
1027  0
1028  0
1029  0
1030  0
1031  0
1032  0
1033  0
1034  0
1035  0
1036  0
1037  0
1038  0
1039  0
1040  0
1041  0
1042  0
1043  0
1044  0
1045  0
1046  0
1047  0
1048  0
1049  0
1050  0
1051  0
1052  0
1053  0
1054  0
1055  0
1056  0
1057  0
1058  0
1059  0
1060  0
1061  0
1062  0
1063  0
1064  0
1065  0
1066  0
1067  0
1068  0
1069  0
1070  0
1071  0
1072  0
1073  0
1074  0
1075  0
1076  0
1077  0
1078  0
1079  0
1080  0
1081  0
1082  0
1083  0
1084  0
1085  0
1086  0
1087  0
1088  0
1089  0
1090  0
1091  0
1092  0
1093  0
1094  0
1095  0
1096  0
1097  0
1098  0
1099  0
1100  0
1101  0
1102  0
1103  0
1104  0
1105  0
1106  0
1107  0
1108  0
1109  0
1110  0
1111  0
1112  0
1113  0
1114  0
1115  0
1116  0
1117  0
1118  0
1119  0
1120  0
1121  0
1122  0
1123  0
1124  0
1125  0
1126  0
1127  0
1128  0
1129  0
1130  0
1131  0
1132  0
1133  0
1134  0
1135  0
1136  0
1137  0
1138  0
1139  0
1140  0
1141  0
1142  0
1143  0
1144  0
1145  0
1146  0
1147  0
1148  0
1149  0
1150  0
1151  0
1152  0
1153  0
1154  0
1155  0
1156  0
1157  0
1158  0
1159  0
1160  0
1161  0
1162  0
1163  0
1164  0
1165  0
1166  0
1167  0
1168  0
1169  0
1170  0
1171  0
1172  0
1173  0
1174  0
1175  0
1176  0
1177  0
1178  0
1179  0
1180  0
1181  0
1182  0
1183  0
1184  0
1185  0
1186  0
1187  0
1188  0
1189  0
1190  0
1191  0
1192  0
1193  0
1194  0
1195  0
1196  0
1197  0
1198  0
1199  0
1200  0
1201  0
1202  0
1203  0
1204  0
1205  0
1206  0
1207  0
1208  0
1209  0
1210  0
1211  0
1212  0
1213  0
1214  0
1215  0
1216  0
1217  0
1218  0
1219  0
1220  0
1221  0
1222  0
1223  0
1224  0
1225  0
1226  0
1227  0
1228  0
1229  0
1230  0
1231  0
1232  0
1233  0
1234  0
1235  0
1236  0
1237  0
1238  0
1239  0
1240  0
1241  0
1242  0
1243  0
1244  0
1245  0
1246  0
1247  0
1248  0
1249  0
1250  0
1251  0
1252  0
1253  0
1254  0
1255  0
1256  0
1257  0
1258  0
1259  0
1260  0
1261  0
1262  0
1263  0
1264  0
1265  0
1266  0
1267  0
1268  0
1269  0
1270  0
1271  0
1272  0
1273  0
1274  0
1275  0
1276  0
1277  0
1278  0
1279  0
1280  0
1281  0
1282  0
1283  0
1284  0
1285  0
1286  0
1287  0
1288  0
1289  0
1290  0
1291  0
1292  0
1293  0
1294  0
1295  0
1296  0
1297  0
1298  0
1299  0
1300  0
1301  0
1302  0
1303  0
1304  0
1305  0
1306  0
1307  0
1308  0
1309  0
1310  0
1311  0
1312  0
1313  0
1314  0
1315  0
1316  0
1317  0
1318  0
1319  0
1320  0
1321  0
1322  0
1323  0
1324  0
1325  0
1326  0
1327  0
1328  0
1329  0
1330  0
1331  0
1332  0
1333  0
1334  0
1335  0
1336  0
1337  0
1338  0
1339  0
1340  0
1341  0
1342  0
1343  0
1344  0
1345  0
1346  0
1347  0
1348  0
1349  0
1350  0
1351  0
1352  0
1353  0
1354  0
1355  0
1356  0
1357  0
1358  0
1359  0
1360  0
1361  0
1362  0
1363  0
1364  0
1365  0
1366  0
1367  0
1368  0
1369  0
1370  0
1371  0
1372  0
1373  0
1374  0
1375  0
1376  0
1377  0
1378  0
1379  0
1380  0
1381  0
1382  0
1383  0
1384  0
1385  0
1386  0
1387  0
1388  0
1389  0
1390  0
1391  0
1392  0
1393  0
1394  0
1395  0
1396  0
1397  0
1398  0
1399  0
1400  0
1401  0
1402  0
1403  0
1404  0
1405  0
1406  0
1407  0
1408  0
1409  0
1410  0
1411  0
1412  0
1413  0
1414  0
1415  0
1416  0
1417  0
1418  0
1419  0
1420  0
1421  0
1422  0
1423  0
1424  0
1425  0
1426  0
1427  0
1428  0
1429  0
1430  0
1431  0
1432  0
1433  0
1434  0
1435  0
1436  0
1437  0
1438  0
1439  0
1440  0
1441  0
1442  0
1443  0
1444  0
1445  0
1446  0
1447  0
1448  0
1449  0
1450  0
1451  0
1452  0
1453  0
1454  0
1455  0
1456  0
1457  0
1458  0
1459  0
1460  0
1461  0
1462  0
1463  0
1464  0
1465  0
1466  0
1467  0
1468  0
1469  0
1470  0
1471  0
1472  0
1473  0
1474  0
1475  0
1476  0
1477  0
1478  0
1479  0
1480  0
1481  0
1482  0
1483  0
1484  0
1485  0
1486  0
1487  0
1488  0
1489  0
1490  0
1491  0
1492  0
1493  0
1494  0
1495  0
1496  0
1497  0
1498  0
1499  0
1500  0
1501  0
1502  0
1503  0
1504  0
1505  0
1506  0
1507  0
1508  0
1509  0
1510  0
1511  0
1512  0
1513  0
1514  0
1515  0
1516  0
1517  0
1518  0
1519  0
1520  0
1521  0
1522  0
1523  0
1524  0
1525  0
1526  0
1527  0
1528  0
1529  0
1530  0
1531  0
1532  0
1533  0
1534  0
1535  0
1536  0
1537  0
1538  0
1539  0
1540  0
1541  0
1542  0
1543  0
1544  0
1545  0
1546  0
1547  0
1548  0
1549  0
1550  0
1551  0
1552  0
1553  0
1554  0
1555  0
1556  0
1557  0
1558  0
1559  0
1560  0
1561  0
1562  0
1563  0
1564  0
1565  0
1566  0
1567  0
1568  0
1569  0
1570  0
1571  0
1572  0
1573  0
1574  0
1575  0
1576  0
1577  0
1578  0
1579  0
1580  0
1581  0
1582  0
1583  0
1584  0
1585  0
1586  0
1587  0
1588  0
1589  0
1590  0
1591  0
1592  0
1593  0
1594  0
1595  0
1596  1
1597  1
1598  14
1599  42
1600  166
1601  533
1602  1582
1603  3956
1604  6882
1605  9171
1606  10932
1607  11591
1608  12132
1609  12207
1610  12392
1611  12812
1612  12982
1613  13059
1614  13498
1615  13319
1616  13213
1617  13723
1618  13656
1619  13202
1620  13364
1621  13273
1622  13314
1623  13147
1624  12988
1625  13015
1626  12852
1627  12591
1628  12238
1629  12219
1630  11907
1631  11360
1632  11408
1633  10869
1634  10938
1635  10400
1636  9984
1637  9589
1638  9369
1639  9105
1640  8863
1641  8426
1642  8233
1643  8057
1644  7452
1645  7173
1646  7070
1647  6702
1648  6465
1649  6175
1650  5782
1651  5658
1652  5418
1653  5073
1654  4947
1655  4706
1656  4530
1657  4334
1658  4115
1659  3964
1660  3829
1661  3571
1662  3396
1663  3360
1664  3174
1665  2977
1666  2997
1667  2766
1668  2607
1669  2484
1670  2443
1671  2273
1672  2190
1673  2026
1674  1917
1675  1895
1676  1840
1677  1814
1678  1702
1679  1516
1680  1529
1681  1432
1682  1435
1683  1354
1684  1341
1685  1158
1686  1266
1687  1125
1688  1167
1689  1072
1690  966
1691  914
1692  889
1693  848
1694  824
1695  795
1696  820
1697  743
1698  696
1699  723
1700  716
1701  680
1702  634
1703  564
1704  613
1705  562
1706  567
1707  561
1708  508
1709  476
1710  481
1711  435
1712  443
1713  468
1714  376
1715  371
1716  392
1717  366
1718  361
1719  340
1720  302
1721  334
1722  301
1723  269
1724  265
1725  293
1726  309
1727  295
1728  278
1729  245
1730  255
1731  287
1732  216
1733  206
1734  226
1735  211
1736  235
1737  209
1738  193
1739  193
1740  166
1741  179
1742  174
1743  175
1744  176
1745  181
1746  154
1747  162
1748  168
1749  148
1750  171
1751  135
1752  160
1753  149
1754  131
1755  113
1756  123
1757  130
1758  119
1759  153
1760  138
1761  141
1762  110
1763  149
1764  121
1765  110
1766  112
1767  132
1768  122
1769  129
1770  125
1771  112
1772  123
1773  110
1774  114
1775  107
1776  117
1777  98
1778  101
1779  109
1780  105
1781  120
1782  127
1783  105
1784  108
1785  86
1786  110
1787  100
1788  110
1789  103
1790  110
1791  102
1792  97
1793  101
1794  110
1795  127
1796  130
1797  90
1798  109
1799  114
1800  96
1801  114
1802  115
1803  110
1804  116
1805  106
1806  111
1807  116
1808  111
1809  123
1810  132
1811  124
1812  129
1813  129
1814  128
1815  137
1816  114
1817  128
1818  137
1819  123
1820  137
1821  128
1822  167
1823  150
1824  122
1825  144
1826  143
1827  172
1828  140
1829  159
1830  157
1831  173
1832  180
1833  150
1834  158
1835  143
1836  179
1837  168
1838  181
1839  167
1840  182
1841  164
1842  177
1843  216
1844  197
1845  187
1846  199
1847  212
1848  236
1849  208
1850  199
1851  209
1852  205
1853  218
1854  245
1855  236
1856  233
1857  229
1858  254
1859  226
1860  223
1861  250
1862  250
1863  273
1864  226
1865  286
1866  254
1867  280
1868  281
1869  301
1870  305
1871  292
1872  286
1873  285
1874  301
1875  315
1876  311
1877  329
1878  339
1879  341
1880  290
1881  335
1882  338
1883  334
1884  353
1885  332
1886  318
1887  345
1888  318
1889  353
1890  367
1891  353
1892  333
1893  351
1894  372
1895  395
1896  406
1897  426
1898  418
1899  399
1900  407
1901  397
1902  430
1903  422
1904  428
1905  436
1906  436
1907  445
1908  443
1909  451
1910  435
1911  439
1912  447
1913  452
1914  400
1915  452
1916  465
1917  530
1918  475
1919  490
1920  490
1921  523
1922  504
1923  508
1924  485
1925  509
1926  517
1927  508
1928  522
1929  545
1930  515
1931  538
1932  556
1933  523
1934  563
1935  511
1936  573
1937  552
1938  541
1939  588
1940  565
1941  587
1942  572
1943  571
1944  563
1945  561
1946  560
1947  603
1948  583
1949  545
1950  575
1951  554
1952  568
1953  556
1954  637
1955  595
1956  629
1957  610
1958  585
1959  613
1960  602
1961  617
1962  600
1963  610
1964  645
1965  597
1966  619
1967  604
1968  603
1969  628
1970  593
1971  617
1972  640
1973  671
1974  651
1975  650
1976  657
1977  641
1978  638
1979  695
1980  605
1981  631
1982  652
1983  642
1984  663
1985  653
1986  648
1987  601
1988  661
1989  654
1990  653
1991  691
1992  632
1993  674
1994  688
1995  640
1996  645
1997  621
1998  640
1999  614
2000  637
2001  644
2002  638
2003  670
2004  632
2005  688
2006  651
2007  680
2008  691
2009  610
2010  640
2011  651
2012  649
2013  635
2014  666
2015  662
2016  643
2017  655
2018  610
2019  642
2020  649
2021  712
2022  651
2023  657
2024  618
2025  656
2026  677
2027  652
2028  635
2029  622
2030  632
2031  647
2032  655
2033  602
2034  648
2035  604
2036  626
2037  653
2038  637
2039  599
2040  659
2041  633
2042  629
2043  607
2044  624
2045  630
2046  633
2047  597
2048  605
2049  625
2050  645
2051  621
2052  584
2053  576
2054  613
2055  587
2056  553
2057  625
2058  607
2059  594
2060  633
2061  564
2062  582
2063  602
2064  584
2065  609
2066  568
2067  584
2068  566
2069  633
2070  536
2071  598
2072  605
2073  590
2074  558
2075  601
2076  539
2077  617
2078  576
2079  576
2080  543
2081  586
2082  545
2083  594
2084  549
2085  561
2086  570
2087  522
2088  520
2089  528
2090  583
2091  567
2092  553
2093  506
2094  518
2095  526
2096  521
2097  530
2098  516
2099  510
2100  522
2101  498
2102  554
2103  501
2104  498
2105  498
2106  518
2107  500
2108  491
2109  506
2110  473
2111  481
2112  509
2113  485
2114  535
2115  457
2116  486
2117  491
2118  480
2119  455
2120  469
2121  432
2122  465
2123  433
2124  459
2125  469
2126  484
2127  440
2128  449
2129  444
2130  453
2131  451
2132  448
2133  481
2134  425
2135  423
2136  459
2137  459
2138  442
2139  431
2140  452
2141  429
2142  426
2143  433
2144  424
2145  456
2146  392
2147  392
2148  409
2149  430
2150  456
2151  415
2152  401
2153  406
2154  396
2155  433
2156  377
2157  429
2158  358
2159  457
2160  399
2161  398
2162  354
2163  385
2164  387
2165  369
2166  392
2167  372
2168  392
2169  358
2170  369
2171  362
2172  392
2173  385
2174  386
2175  359
2176  342
2177  356
2178  369
2179  376
2180  351
2181  319
2182  381
2183  382
2184  338
2185  334
2186  366
2187  348
2188  350
2189  292
2190  349
2191  318
2192  339
2193  343
2194  338
2195  356
2196  311
2197  334
2198  331
2199  310
2200  327
2201  321
2202  335
2203  318
2204  309
2205  292
2206  305
2207  278
2208  315
2209  322
2210  292
2211  288
2212  296
2213  271
2214  308
2215  295
2216  311
2217  312
2218  313
2219  278
2220  301
2221  291
2222  272
2223  282
2224  286
2225  263
2226  271
2227  277
2228  283
2229  268
2230  263
2231  292
2232  256
2233  259
2234  275
2235  310
2236  269
2237  245
2238  262
2239  248
2240  256
2241  251
2242  264
2243  273
2244  223
2245  254
2246  229
2247  230
2248  244
2249  213
2250  234
2251  219
2252  225
2253  254
2254  245
2255  247
2256  217
2257  212
2258  210
2259  223
2260  229
2261  237
2262  227
2263  224
2264  215
2265  210
2266  209
2267  211
2268  211
2269  201
2270  202
2271  211
2272  208
2273  205
2274  191
2275  221
2276  212
2277  185
2278  183
2279  195
2280  221
2281  191
2282  171
2283  189
2284  205
2285  202
2286  184
2287  169
2288  188
2289  174
2290  191
2291  160
2292  175
2293  188
2294  184
2295  213
2296  204
2297  182
2298  170
2299  157
2300  165
2301  173
2302  196
2303  184
2304  170
2305  187
2306  179
2307  172
2308  170
2309  131
2310  175
2311  160
2312  179
2313  156
2314  153
2315  173
2316  144
2317  157
2318  164
2319  173
2320  147
2321  147
2322  166
2323  162
2324  139
2325  155
2326  163
2327  155
2328  149
2329  146
2330  145
2331  162
2332  154
2333  150
2334  158
2335  156
2336  125
2337  145
2338  134
2339  156
2340  131
2341  139
2342  122
2343  149
2344  136
2345  134
2346  140
2347  116
2348  148
2349  134
2350  123
2351  127
2352  138
2353  144
2354  126
2355  105
2356  116
2357  112
2358  137
2359  140
2360  130
2361  132
2362  124
2363  115
2364  114
2365  127
2366  120
2367  120
2368  93
2369  123
2370  130
2371  115
2372  105
2373  118
2374  107
2375  127
2376  109
2377  120
2378  91
2379  111
2380  111
2381  106
2382  144
2383  115
2384  111
2385  103
2386  107
2387  95
2388  104
2389  103
2390  96
2391  103
2392  90
2393  115
2394  101
2395  104
2396  104
2397  110
2398  88
2399  124
2400  97
2401  81
2402  99
2403  103
2404  88
2405  111
2406  85
2407  89
2408  94
2409  86
2410  111
2411  96
2412  82
2413  103
2414  87
2415  90
2416  84
2417  88
2418  92
2419  95
2420  80
2421  97
2422  78
2423  96
2424  78
2425  97
2426  91
2427  88
2428  69
2429  86
2430  81
2431  84
2432  75
2433  74
2434  78
2435  74
2436  77
2437  115
2438  94
2439  98
2440  77
2441  83
2442  88
2443  95
2444  89
2445  88
2446  66
2447  83
2448  82
2449  73
2450  75
2451  65
2452  51
2453  73
2454  71
2455  75
2456  65
2457  74
2458  80
2459  63
2460  78
2461  82
2462  71
2463  63
2464  78
2465  80
2466  72
2467  67
2468  67
2469  64
2470  65
2471  69
2472  77
2473  66
2474  60
2475  67
2476  47
2477  60
2478  58
2479  63
2480  73
2481  64
2482  71
2483  58
2484  63
2485  62
2486  63
2487  67
2488  55
2489  53
2490  65
2491  59
2492  72
2493  63
2494  81
2495  59
2496  59
2497  49
2498  54
2499  55
2500  72
2501  62
2502  44
2503  55
2504  64
2505  59
2506  58
2507  58
2508  61
2509  57
2510  42
2511  66
2512  58
2513  69
2514  53
2515  49
2516  66
2517  51
2518  58
2519  61
2520  65
2521  41
2522  62
2523  52
2524  47
2525  52
2526  57
2527  62
2528  57
2529  65
2530  59
2531  40
2532  57
2533  50
2534  39
2535  49
2536  52
2537  42
2538  48
2539  51
2540  50
2541  54
2542  37
2543  47
2544  37
2545  55
2546  41
2547  51
2548  49
2549  48
2550  42
2551  58
2552  40
2553  50
2554  54
2555  45
2556  43
2557  41
2558  37
2559  52
2560  51
2561  41
2562  43
2563  38
2564  38
2565  41
2566  59
2567  49
2568  43
2569  43
2570  43
2571  56
2572  49
2573  39
2574  50
2575  43
2576  36
2577  40
2578  40
2579  42
2580  48
2581  37
2582  40
2583  45
2584  35
2585  40
2586  46
2587  40
2588  38
2589  42
2590  44
2591  33
2592  38
2593  35
2594  40
2595  41
2596  45
2597  43
2598  29
2599  44
2600  39
2601  37
2602  29
2603  35
2604  21
2605  37
2606  44
2607  33
2608  28
2609  43
2610  29
2611  29
2612  29
2613  30
2614  39
2615  35
2616  35
2617  28
2618  41
2619  35
2620  42
2621  39
2622  39
2623  27
2624  30
2625  30
2626  36
2627  38
2628  35
2629  30
2630  35
2631  32
2632  31
2633  39
2634  23
2635  33
2636  30
2637  29
2638  26
2639  31
2640  25
2641  33
2642  29
2643  31
2644  28
2645  35
2646  40
2647  33
2648  30
2649  30
2650  39
2651  24
2652  33
2653  30
2654  25
2655  32
2656  38
2657  31
2658  20
2659  49
2660  36
2661  26
2662  29
2663  30
2664  28
2665  29
2666  34
2667  25
2668  23
2669  24
2670  28
2671  31
2672  27
2673  29
2674  29
2675  26
2676  29
2677  32
2678  29
2679  29
2680  39
2681  35
2682  20
2683  31
2684  21
2685  28
2686  31
2687  34
2688  32
2689  29
2690  25
2691  38
2692  41
2693  31
2694  26
2695  25
2696  28
2697  19
2698  23
2699  20
2700  31
2701  26
2702  28
2703  28
2704  30
2705  21
2706  39
2707  23
2708  25
2709  31
2710  22
2711  23
2712  26
2713  22
2714  17
2715  29
2716  26
2717  17
2718  20
2719  26
2720  24
2721  21
2722  17
2723  23
2724  35
2725  21
2726  16
2727  14
2728  27
2729  21
2730  27
2731  30
2732  27
2733  15
2734  27
2735  20
2736  17
2737  26
2738  25
2739  17
2740  27
2741  17
2742  18
2743  22
2744  29
2745  22
2746  25
2747  28
2748  26
2749  19
2750  19
2751  20
2752  16
2753  25
2754  23
2755  18
2756  16
2757  18
2758  20
2759  25
2760  21
2761  18
2762  15
2763  17
2764  23
2765  18
2766  26
2767  21
2768  22
2769  21
2770  22
2771  19
2772  17
2773  16
2774  13
2775  18
2776  15
2777  31
2778  16
2779  22
2780  20
2781  16
2782  16
2783  22
2784  20
2785  23
2786  26
2787  14
2788  13
2789  16
2790  19
2791  24
2792  17
2793  17
2794  20
2795  18
2796  19
2797  21
2798  12
2799  21
2800  21
2801  16
2802  20
2803  12
2804  18
2805  18
2806  11
2807  17
2808  9
2809  18
2810  25
2811  27
2812  15
2813  10
2814  15
2815  12
2816  22
2817  19
2818  13
2819  27
2820  17
2821  12
2822  14
2823  19
2824  17
2825  10
2826  24
2827  20
2828  9
2829  5
2830  15
2831  23
2832  18
2833  21
2834  17
2835  21
2836  13
2837  20
2838  23
2839  15
2840  19
2841  11
2842  17
2843  11
2844  18
2845  17
2846  16
2847  12
2848  22
2849  20
2850  14
2851  12
2852  15
2853  20
2854  20
2855  15
2856  19
2857  14
2858  17
2859  10
2860  15
2861  21
2862  18
2863  20
2864  10
2865  15
2866  17
2867  18
2868  11
2869  19
2870  13
2871  18
2872  13
2873  15
2874  13
2875  21
2876  13
2877  10
2878  19
2879  14
2880  9
2881  20
2882  23
2883  10
2884  16
2885  19
2886  15
2887  13
2888  10
2889  12
2890  10
2891  18
2892  10
2893  14
2894  17
2895  13
2896  18
2897  11
2898  11
2899  17
2900  13
2901  18
2902  13
2903  16
2904  17
2905  12
2906  17
2907  20
2908  14
2909  17
2910  20
2911  14
2912  9
2913  14
2914  17
2915  13
2916  15
2917  15
2918  18
2919  20
2920  11
2921  16
2922  13
2923  17
2924  17
2925  8
2926  9
2927  10
2928  12
2929  12
2930  12
2931  21
2932  10
2933  18
2934  19
2935  13
2936  11
2937  15
2938  13
2939  11
2940  10
2941  9
2942  8
2943  17
2944  8
2945  21
2946  9
2947  8
2948  14
2949  19
2950  14
2951  13
2952  14
2953  15
2954  9
2955  8
2956  12
2957  11
2958  15
2959  14
2960  14
2961  14
2962  8
2963  9
2964  11
2965  16
2966  16
2967  8
2968  13
2969  12
2970  16
2971  14
2972  10
2973  12
2974  12
2975  9
2976  17
2977  14
2978  8
2979  14
2980  9
2981  11
2982  9
2983  9
2984  12
2985  11
2986  6
2987  17
2988  12
2989  13
2990  6
2991  20
2992  14
2993  5
2994  9
2995  16
2996  15
2997  11
2998  9
2999  13
3000  14
3001  7
3002  15
3003  11
3004  9
3005  9
3006  11
3007  11
3008  11
3009  16
3010  4
3011  9
3012  8
3013  14
3014  4
3015  10
3016  12
3017  5
3018  10
3019  18
3020  12
3021  11
3022  15
3023  10
3024  10
3025  17
3026  10
3027  5
3028  8
3029  12
3030  9
3031  14
3032  7
3033  14
3034  13
3035  14
3036  7
3037  15
3038  11
3039  14
3040  16
3041  11
3042  9
3043  8
3044  7
3045  8
3046  10
3047  13
3048  10
3049  10
3050  14
3051  13
3052  11
3053  7
3054  10
3055  7
3056  7
3057  11
3058  5
3059  8
3060  8
3061  11
3062  9
3063  11
3064  9
3065  6
3066  11
3067  11
3068  6
3069  9
3070  9
3071  6
3072  12
3073  5
3074  10
3075  10
3076  10
3077  9
3078  4
3079  10
3080  13
3081  11
3082  14
3083  9
3084  8
3085  8
3086  10
3087  11
3088  8
3089  11
3090  14
3091  6
3092  7
3093  11
3094  5
3095  10
3096  7
3097  5
3098  7
3099  8
3100  6
3101  11
3102  9
3103  12
3104  8
3105  8
3106  6
3107  11
3108  9
3109  12
3110  9
3111  8
3112  9
3113  11
3114  6
3115  10
3116  5
3117  11
3118  8
3119  11
3120  9
3121  8
3122  9
3123  16
3124  10
3125  13
3126  8
3127  8
3128  11
3129  9
3130  12
3131  9
3132  11
3133  8
3134  5
3135  5
3136  8
3137  8
3138  8
3139  9
3140  9
3141  6
3142  7
3143  8
3144  6
3145  6
3146  6
3147  7
3148  9
3149  9
3150  5
3151  9
3152  6
3153  13
3154  6
3155  10
3156  8
3157  6
3158  7
3159  12
3160  9
3161  8
3162  8
3163  7
3164  9
3165  8
3166  6
3167  12
3168  6
3169  15
3170  13
3171  8
3172  5
3173  12
3174  7
3175  10
3176  4
3177  10
3178  5
3179  4
3180  7
3181  9
3182  9
3183  8
3184  2
3185  12
3186  5
3187  5
3188  5
3189  11
3190  9
3191  12
3192  10
3193  7
3194  8
3195  7
3196  13
3197  8
3198  11
3199  11
3200  7
3201  5
3202  8
3203  6
3204  8
3205  10
3206  7
3207  8
3208  12
3209  11
3210  6
3211  8
3212  7
3213  5
3214  8
3215  10
3216  5
3217  6
3218  9
3219  8
3220  6
3221  4
3222  6
3223  6
3224  10
3225  8
3226  9
3227  4
3228  5
3229  6
3230  8
3231  9
3232  11
3233  7
3234  7
3235  11
3236  8
3237  7
3238  4
3239  8
3240  4
3241  5
3242  8
3243  9
3244  3
3245  12
3246  6
3247  11
3248  6
3249  6
3250  12
3251  10
3252  3
3253  11
3254  8
3255  8
3256  7
3257  11
3258  4
3259  2
3260  6
3261  8
3262  10
3263  11
3264  6
3265  8
3266  9
3267  5
3268  5
3269  5
3270  6
3271  8
3272  6
3273  8
3274  7
3275  6
3276  2
3277  9
3278  7
3279  6
3280  5
3281  5
3282  6
3283  8
3284  6
3285  4
3286  5
3287  9
3288  4
3289  8
3290  5
3291  8
3292  7
3293  2
3294  4
3295  6
3296  5
3297  7
3298  2
3299  7
3300  10
3301  5
3302  6
3303  8
3304  7
3305  5
3306  7
3307  6
3308  5
3309  11
3310  10
3311  4
3312  6
3313  5
3314  6
3315  12
3316  5
3317  5
3318  9
3319  7
3320  10
3321  5
3322  5
3323  6
3324  13
3325  5
3326  6
3327  5
3328  7
3329  1
3330  6
3331  7
3332  3
3333  5
3334  10
3335  8
3336  6
3337  3
3338  14
3339  5
3340  8
3341  5
3342  7
3343  6
3344  4
3345  8
3346  11
3347  8
3348  5
3349  9
3350  7
3351  11
3352  4
3353  5
3354  5
3355  2
3356  5
3357  8
3358  6
3359  8
3360  7
3361  5
3362  7
3363  4
3364  6
3365  7
3366  3
3367  10
3368  8
3369  6
3370  6
3371  7
3372  7
3373  6
3374  5
3375  4
3376  9
3377  7
3378  5
3379  5
3380  3
3381  4
3382  5
3383  2
3384  7
3385  6
3386  4
3387  5
3388  3
3389  5
3390  7
3391  3
3392  6
3393  4
3394  1
3395  5
3396  8
3397  6
3398  13
3399  4
3400  6
3401  6
3402  12
3403  5
3404  2
3405  1
3406  5
3407  3
3408  6
3409  3
3410  2
3411  5
3412  3
3413  9
3414  4
3415  4
3416  8
3417  3
3418  6
3419  5
3420  11
3421  5
3422  6
3423  4
3424  5
3425  4
3426  7
3427  6
3428  7
3429  6
3430  4
3431  4
3432  2
3433  8
3434  0
3435  8
3436  4
3437  10
3438  4
3439  3
3440  6
3441  3
3442  7
3443  3
3444  6
3445  8
3446  6
3447  2
3448  9
3449  5
3450  2
3451  5
3452  2
3453  1
3454  5
3455  4
3456  6
3457  3
3458  6
3459  7
3460  5
3461  8
3462  4
3463  7
3464  7
3465  4
3466  5
3467  2
3468  5
3469  5
3470  5
3471  3
3472  3
3473  4
3474  7
3475  3
3476  4
3477  4
3478  4
3479  4
3480  6
3481  7
3482  4
3483  5
3484  5
3485  7
3486  2
3487  3
3488  8
3489  2
3490  7
3491  3
3492  4
3493  6
3494  2
3495  9
3496  5
3497  8
3498  4
3499  8
3500  4
3501  6
3502  3
3503  7
3504  5
3505  4
3506  4
3507  6
3508  4
3509  7
3510  2
3511  5
3512  3
3513  13
3514  3
3515  7
3516  2
3517  7
3518  1
3519  5
3520  3
3521  9
3522  3
3523  4
3524  8
3525  2
3526  5
3527  4
3528  4
3529  7
3530  4
3531  3
3532  6
3533  4
3534  7
3535  6
3536  5
3537  7
3538  2
3539  5
3540  2
3541  6
3542  4
3543  5
3544  2
3545  4
3546  3
3547  3
3548  6
3549  4
3550  4
3551  6
3552  3
3553  7
3554  3
3555  4
3556  6
3557  4
3558  3
3559  4
3560  1
3561  7
3562  6
3563  4
3564  5
3565  1
3566  6
3567  2
3568  3
3569  5
3570  4
3571  8
3572  4
3573  7
3574  3
3575  5
3576  5
3577  5
3578  5
3579  4
3580  2
3581  7
3582  5
3583  3
3584  8
3585  3
3586  8
3587  5
3588  4
3589  1
3590  2
3591  5
3592  3
3593  5
3594  3
3595  4
3596  10
3597  6
3598  6
3599  6
3600  3
3601  4
3602  3
3603  5
3604  3
3605  8
3606  3
3607  5
3608  2
3609  7
3610  4
3611  5
3612  11
3613  6
3614  5
3615  9
3616  5
3617  4
3618  4
3619  2
3620  3
3621  4
3622  4
3623  2
3624  7
3625  4
3626  5
3627  2
3628  5
3629  2
3630  4
3631  5
3632  4
3633  7
3634  7
3635  4
3636  6
3637  2
3638  5
3639  3
3640  4
3641  5
3642  7
3643  6
3644  7
3645  1
3646  5
3647  9
3648  5
3649  4
3650  9
3651  7
3652  4
3653  4
3654  3
3655  4
3656  7
3657  4
3658  1
3659  3
3660  5
3661  5
3662  2
3663  3
3664  3
3665  4
3666  0
3667  2
3668  2
3669  4
3670  5
3671  5
3672  4
3673  2
3674  6
3675  3
3676  3
3677  6
3678  3
3679  4
3680  3
3681  6
3682  2
3683  5
3684  5
3685  3
3686  3
3687  4
3688  6
3689  5
3690  5
3691  4
3692  7
3693  3
3694  1
3695  5
3696  6
3697  7
3698  4
3699  6
3700  5
3701  6
3702  3
3703  7
3704  4
3705  6
3706  6
3707  4
3708  3
3709  4
3710  2
3711  2
3712  5
3713  5
3714  2
3715  1
3716  2
3717  4
3718  3
3719  3
3720  1
3721  2
3722  6
3723  2
3724  1
3725  3
3726  3
3727  3
3728  1
3729  3
3730  7
3731  5
3732  2
3733  3
3734  2
3735  6
3736  7
3737  3
3738  1
3739  6
3740  9
3741  4
3742  5
3743  2
3744  5
3745  9
3746  5
3747  4
3748  6
3749  7
3750  4
3751  1
3752  6
3753  6
3754  5
3755  4
3756  5
3757  2
3758  3
3759  4
3760  2
3761  6
3762  5
3763  4
3764  3
3765  3
3766  3
3767  4
3768  4
3769  1
3770  1
3771  2
3772  2
3773  4
3774  1
3775  5
3776  1
3777  2
3778  4
3779  4
3780  4
3781  9
3782  1
3783  5
3784  4
3785  2
3786  5
3787  3
3788  3
3789  0
3790  3
3791  4
3792  4
3793  3
3794  4
3795  5
3796  1
3797  8
3798  5
3799  2
3800  3
3801  4
3802  2
3803  5
3804  2
3805  5
3806  2
3807  3
3808  5
3809  2
3810  5
3811  4
3812  6
3813  2
3814  2
3815  6
3816  4
3817  5
3818  0
3819  3
3820  1
3821  3
3822  5
3823  0
3824  5
3825  5
3826  5
3827  3
3828  2
3829  5
3830  2
3831  3
3832  5
3833  3
3834  3
3835  0
3836  2
3837  2
3838  4
3839  5
3840  0
3841  0
3842  0
3843  0
3844  0
3845  0
3846  0
3847  0
3848  0
3849  0
3850  0
3851  0
3852  0
3853  0
3854  0
3855  0
3856  0
3857  0
3858  0
3859  0
3860  0
3861  0
3862  0
3863  0
3864  0
3865  0
3866  0
3867  0
3868  0
3869  0
3870  0
3871  0
3872  0
3873  0
3874  0
3875  0
3876  0
3877  0
3878  0
3879  0
3880  0
3881  0
3882  0
3883  0
3884  0
3885  0
3886  0
3887  0
3888  0
3889  0
3890  0
3891  0
3892  0
3893  0
3894  0
3895  0
3896  0
3897  0
3898  0
3899  0
3900  0
3901  0
3902  0
3903  0
3904  0
3905  0
3906  0
3907  0
3908  0
3909  0
3910  0
3911  0
3912  0
3913  0
3914  0
3915  0
3916  0
3917  0
3918  0
3919  0
3920  0
3921  0
3922  0
3923  0
3924  0
3925  0
3926  0
3927  0
3928  0
3929  0
3930  0
3931  0
3932  0
3933  0
3934  0
3935  0
3936  0
3937  0
3938  0
3939  0
3940  0
3941  0
3942  0
3943  0
3944  0
3945  0
3946  0
3947  0
3948  0
3949  0
3950  0
3951  0
3952  0
3953  0
3954  0
3955  0
3956  0
3957  0
3958  0
3959  0
3960  0
3961  0
3962  0
3963  0
3964  0
3965  0
3966  0
3967  0
3968  0
3969  0
3970  0
3971  0
3972  0
3973  0
3974  0
3975  0
3976  0
3977  0
3978  0
3979  0
3980  0
3981  0
3982  0
3983  0
3984  0
3985  0
3986  0
3987  0
3988  0
3989  0
3990  0
3991  0
3992  0
3993  0
3994  0
3995  0
3996  0
3997  0
3998  0
3999  0
4000  0
4001  0
4002  0
4003  0
4004  0
4005  0
4006  0
4007  0
4008  0
4009  0
4010  0
4011  0
4012  0
4013  0
4014  0
4015  0
4016  0
4017  0
4018  0
4019  0
4020  0
4021  0
4022  0
4023  0
4024  0
4025  0
4026  0
4027  0
4028  0
4029  0
4030  0
4031  0
4032  0
4033  0
4034  0
4035  0
4036  0
4037  0
4038  0
4039  0
4040  0
4041  0
4042  0
4043  0
4044  0
4045  0
4046  0
4047  0
4048  0
4049  0
4050  0
4051  0
4052  0
4053  0
4054  0
4055  0
4056  0
4057  0
4058  0
4059  0
4060  0
4061  0
4062  0
4063  0
4064  0
4065  0
4066  0
4067  0
4068  0
4069  0
4070  0
4071  0
4072  0
4073  0
4074  0
4075  0
4076  0
4077  0
4078  0
4079  0
4080  0
4081  0
4082  0
4083  0
4084  0
4085  0
4086  0
4087  0
4088  0
4089  0
4090  0
4091  0
4092  0
4093  0
4094  0
4095  0
