0  4752
1  5530
2  6695
3  7907
4  9102
5  10231
6  11642
7  13053
8  14465
9  15418
10  16531
11  17852
12  18080
13  19215
14  19171
15  19114
16  19241
17  18466
18  18098
19  17454
20  16252
21  15226
22  14154
23  12766
24  11474
25  10062
26  9054
27  7790
28  6797
29  5698
30  4663
31  3898
32  3168
33  2604
34  2135
35  1658
36  1289
37  998
38  785
39  641
40  455
41  346
42  247
43  192
44  128
45  107
46  63
47  55
48  44
49  32
50  27
51  15
52  13
53  5
54  7
55  7
56  4
57  3
58  1
59  3
60  1
61  0
62  3
63  0
64  2
65  1
66  2
67  0
68  1
69  0
70  2
71  2
72  5
73  3
74  0
75  0
76  1
77  3
78  5
79  0
80  2
81  1
82  2
83  1
84  1
85  2
86  1
87  1
88  0
89  1
90  3
91  1
92  1
93  2
94  1
95  4
96  2
97  1
98  3
99  0
100  2
101  2
102  1
103  2
104  1
105  2
106  0
107  0
108  0
109  1
110  1
111  0
112  2
113  1
114  1
115  0
116  0
117  0
118  0
119  3
120  0
121  0
122  0
123  0
124  2
125  1
126  0
127  1
128  2
129  3
130  0
131  1
132  0
133  1
134  0
135  1
136  1
137  0
138  0
139  2
140  0
141  0
142  1
143  0
144  0
145  2
146  2
147  1
148  2
149  0
150  1
151  0
152  1
153  0
154  1
155  1
156  2
157  0
158  1
159  0
160  0
161  1
162  0
163  0
164  0
165  0
166  1
167  0
168  2
169  0
170  0
171  3
172  2
173  2
174  0
175  1
176  2
177  1
178  1
179  0
180  4
181  2
182  2
183  6
184  4
185  3
186  5
187  11
188  14
189  22
190  19
191  25
192  32
193  51
194  74
195  102
196  148
197  170
198  203
199  270
200  324
201  404
202  494
203  597
204  666
205  885
206  938
207  1056
208  1163
209  1356
210  1459
211  1652
212  1819
213  1858
214  2112
215  2204
216  2341
217  2434
218  2441
219  2560
220  2508
221  2459
222  2461
223  2481
224  2272
225  2319
226  2123
227  2050
228  1897
229  1794
230  1663
231  1527
232  1391
233  1295
234  1171
235  1082
236  1004
237  882
238  886
239  854
240  741
241  679
242  753
243  623
244  637
245  596
246  625
247  592
248  533
249  541
250  585
251  557
252  533
253  541
254  564
255  516
256  503
257  524
258  536
259  504
260  545
261  513
262  511
263  467
264  497
265  544
266  514
267  554
268  519
269  503
270  564
271  550
272  523
273  516
274  547
275  525
276  499
277  535
278  580
279  522
280  552
281  515
282  506
283  517
284  579
285  546
286  547
287  542
288  569
289  558
290  556
291  516
292  576
293  572
294  512
295  572
296  576
297  563
298  573
299  537
300  572
301  543
302  589
303  581
304  530
305  544
306  534
307  604
308  539
309  543
310  508
311  542
312  478
313  556
314  522
315  516
316  541
317  545
318  549
319  521
320  545
321  505
322  515
323  570
324  529
325  603
326  556
327  558
328  551
329  568
330  550
331  513
332  550
333  546
334  548
335  550
336  554
337  514
338  578
339  499
340  563
341  570
342  542
343  490
344  529
345  565
346  558
347  559
348  524
349  523
350  547
351  578
352  540
353  535
354  560
355  595
356  528
357  586
358  607
359  546
360  572
361  526
362  565
363  550
364  538
365  534
366  552
367  542
368  557
369  555
370  538
371  531
372  609
373  561
374  543
375  588
376  558
377  585
378  545
379  527
380  589
381  572
382  551
383  563
384  562
385  514
386  533
387  603
388  607
389  575
390  589
391  560
392  533
393  565
394  522
395  553
396  598
397  563
398  604
399  585
400  566
401  548
402  576
403  567
404  566
405  556
406  570
407  584
408  588
409  574
410  593
411  594
412  594
413  517
414  573
415  565
416  555
417  587
418  594
419  541
420  587
421  567
422  532
423  590
424  570
425  548
426  553
427  584
428  535
429  588
430  550
431  595
432  591
433  555
434  587
435  577
436  542
437  577
438  626
439  544
440  564
441  531
442  566
443  583
444  570
445  581
446  564
447  585
448  560
449  588
450  577
451  572
452  536
453  586
454  595
455  546
456  531
457  553
458  604
459  584
460  572
461  569
462  573
463  572
464  562
465  542
466  531
467  553
468  533
469  584
470  609
471  594
472  583
473  542
474  596
475  556
476  606
477  539
478  553
479  610
480  562
481  557
482  565
483  589
484  627
485  601
486  588
487  612
488  602
489  560
490  625
491  564
492  572
493  547
494  524
495  543
496  569
497  576
498  569
499  594
500  571
501  570
502  595
503  585
504  580
505  583
506  560
507  548
508  585
509  572
510  519
511  566
512  560
513  587
514  544
515  601
516  575
517  596
518  575
519  590
520  571
521  580
522  527
523  573
524  537
525  540
526  551
527  584
528  560
529  616
530  603
531  637
532  568
533  559
534  550
535  549
536  554
537  539
538  609
539  570
540  556
541  564
542  559
543  601
544  575
545  535
546  587
547  553
548  562
549  540
550  585
551  538
552  558
553  568
554  555
555  583
556  570
557  534
558  573
559  512
560  542
561  520
562  559
563  540
564  619
565  599
566  555
567  579
568  579
569  600
570  556
571  544
572  556
573  561
574  537
575  540
576  583
577  556
578  589
579  523
580  589
581  534
582  585
583  557
584  518
585  550
586  561
587  538
588  568
589  542
590  542
591  524
592  541
593  567
594  545
595  516
596  521
597  557
598  546
599  565
600  564
601  561
602  537
603  542
604  572
605  558
606  537
607  544
608  563
609  602
610  576
611  525
612  548
613  532
614  535
615  516
616  545
617  550
618  535
619  524
620  555
621  550
622  546
623  541
624  516
625  513
626  516
627  501
628  508
629  548
630  521
631  508
632  497
633  534
634  535
635  531
636  563
637  551
638  567
639  529
640  508
641  517
642  562
643  542
644  538
645  477
646  502
647  527
648  541
649  518
650  507
651  510
652  517
653  567
654  578
655  533
656  589
657  534
658  552
659  492
660  493
661  528
662  532
663  515
664  527
665  513
666  509
667  527
668  524
669  537
670  498
671  520
672  500
673  543
674  506
675  527
676  569
677  498
678  516
679  480
680  569
681  500
682  495
683  526
684  550
685  513
686  529
687  520
688  540
689  559
690  517
691  525
692  510
693  485
694  533
695  519
696  502
697  532
698  511
699  482
700  501
701  490
702  514
703  478
704  516
705  460
706  514
707  513
708  494
709  465
710  511
711  497
712  493
713  469
714  482
715  494
716  478
717  500
718  489
719  471
720  430
721  467
722  464
723  465
724  488
725  467
726  485
727  458
728  539
729  466
730  474
731  505
732  468
733  514
734  453
735  451
736  446
737  493
738  495
739  480
740  506
741  476
742  448
743  485
744  545
745  454
746  450
747  482
748  463
749  498
750  469
751  480
752  448
753  477
754  439
755  476
756  439
757  463
758  458
759  487
760  453
761  478
762  488
763  487
764  471
765  425
766  433
767  475
768  489
769  420
770  443
771  476
772  451
773  427
774  443
775  428
776  437
777  476
778  437
779  404
780  469
781  466
782  410
783  440
784  411
785  417
786  433
787  403
788  445
789  439
790  468
791  351
792  408
793  433
794  401
795  432
796  416
797  423
798  428
799  447
800  426
801  378
802  426
803  437
804  456
805  407
806  432
807  396
808  412
809  375
810  394
811  373
812  414
813  436
814  409
815  418
816  413
817  413
818  434
819  386
820  385
821  401
822  409
823  370
824  381
825  400
826  386
827  384
828  369
829  387
830  360
831  402
832  387
833  397
834  380
835  383
836  395
837  387
838  419
839  382
840  375
841  397
842  402
843  380
844  352
845  350
846  353
847  411
848  360
849  384
850  387
851  362
852  383
853  366
854  385
855  337
856  361
857  362
858  357
859  332
860  364
861  352
862  376
863  358
864  341
865  325
866  349
867  355
868  359
869  330
870  343
871  325
872  349
873  336
874  332
875  329
876  347
877  339
878  372
879  344
880  334
881  356
882  345
883  323
884  318
885  310
886  324
887  326
888  333
889  291
890  339
891  309
892  327
893  329
894  312
895  325
896  309
897  341
898  320
899  295
900  309
901  325
902  284
903  319
904  272
905  307
906  322
907  278
908  297
909  298
910  288
911  309
912  286
913  277
914  312
915  312
916  325
917  302
918  275
919  305
920  270
921  272
922  273
923  270
924  289
925  273
926  266
927  293
928  274
929  281
930  263
931  289
932  304
933  260
934  284
935  269
936  270
937  284
938  253
939  266
940  253
941  260
942  260
943  249
944  257
945  236
946  276
947  255
948  232
949  252
950  272
951  251
952  218
953  238
954  270
955  231
956  238
957  225
958  257
959  261
960  264
961  243
962  246
963  236
964  219
965  253
966  247
967  233
968  247
969  232
970  270
971  222
972  234
973  211
974  227
975  202
976  227
977  213
978  242
979  238
980  213
981  212
982  242
983  202
984  227
985  242
986  226
987  236
988  236
989  232
990  203
991  191
992  215
993  252
994  204
995  226
996  246
997  232
998  224
999  226
1000  235
1001  216
1002  233
1003  237
1004  205
1005  215
1006  210
1007  202
1008  186
1009  202
1010  209
1011  200
1012  196
1013  207
1014  189
1015  189
1016  194
1017  220
1018  182
1019  205
1020  225
1021  191
1022  210
1023  216
1024  204
1025  198
1026  187
1027  198
1028  218
1029  191
1030  228
1031  188
1032  212
1033  202
1034  183
1035  232
1036  191
1037  206
1038  207
1039  192
1040  188
1041  199
1042  222
1043  223
1044  193
1045  193
1046  216
1047  188
1048  209
1049  193
1050  201
1051  216
1052  200
1053  201
1054  202
1055  215
1056  201
1057  200
1058  203
1059  217
1060  200
1061  169
1062  183
1063  200
1064  197
1065  195
1066  184
1067  170
1068  203
1069  161
1070  202
1071  190
1072  201
1073  211
1074  212
1075  193
1076  209
1077  203
1078  214
1079  213
1080  209
1081  187
1082  185
1083  174
1084  208
1085  189
1086  192
1087  205
1088  191
1089  185
1090  191
1091  180
1092  222
1093  187
1094  197
1095  189
1096  171
1097  194
1098  187
1099  206
1100  185
1101  199
1102  159
1103  203
1104  201
1105  178
1106  164
1107  202
1108  187
1109  181
1110  170
1111  176
1112  185
1113  172
1114  190
1115  183
1116  188
1117  203
1118  185
1119  183
1120  187
1121  194
1122  194
1123  168
1124  199
1125  187
1126  199
1127  180
1128  182
1129  196
1130  196
1131  192
1132  178
1133  178
1134  190
1135  186
1136  191
1137  198
1138  180
1139  187
1140  185
1141  194
1142  206
1143  173
1144  170
1145  184
1146  193
1147  200
1148  207
1149  188
1150  186
1151  181
1152  168
1153  200
1154  199
1155  162
1156  180
1157  185
1158  179
1159  180
1160  181
1161  158
1162  166
1163  168
1164  187
1165  180
1166  163
1167  166
1168  182
1169  185
1170  191
1171  197
1172  168
1173  164
1174  179
1175  180
1176  157
1177  156
1178  166
1179  150
1180  164
1181  160
1182  172
1183  177
1184  170
1185  208
1186  151
1187  164
1188  176
1189  175
1190  157
1191  184
1192  170
1193  177
1194  160
1195  146
1196  143
1197  167
1198  146
1199  163
1200  170
1201  152
1202  180
1203  179
1204  185
1205  188
1206  161
1207  176
1208  174
1209  165
1210  155
1211  162
1212  157
1213  166
1214  179
1215  172
1216  150
1217  177
1218  188
1219  174
1220  163
1221  173
1222  171
1223  179
1224  186
1225  180
1226  200
1227  199
1228  173
1229  160
1230  167
1231  153
1232  166
1233  172
1234  198
1235  174
1236  171
1237  160
1238  169
1239  165
1240  169
1241  160
1242  193
1243  164
1244  178
1245  189
1246  179
1247  190
1248  195
1249  159
1250  189
1251  159
1252  138
1253  166
1254  178
1255  187
1256  174
1257  159
1258  172
1259  169
1260  172
1261  185
1262  169
1263  166
1264  178
1265  189
1266  161
1267  176
1268  191
1269  183
1270  186
1271  165
1272  190
1273  188
1274  193
1275  183
1276  187
1277  169
1278  162
1279  200
1280  163
1281  168
1282  205
1283  173
1284  171
1285  197
1286  169
1287  215
1288  200
1289  190
1290  196
1291  193
1292  178
1293  153
1294  219
1295  182
1296  198
1297  197
1298  178
1299  181
1300  162
1301  207
1302  210
1303  200
1304  208
1305  195
1306  182
1307  190
1308  201
1309  222
1310  197
1311  193
1312  196
1313  192
1314  203
1315  198
1316  184
1317  207
1318  209
1319  202
1320  184
1321  217
1322  204
1323  196
1324  196
1325  191
1326  200
1327  205
1328  187
1329  195
1330  183
1331  214
1332  173
1333  227
1334  212
1335  211
1336  198
1337  232
1338  202
1339  185
1340  200
1341  212
1342  203
1343  224
1344  207
1345  200
1346  228
1347  200
1348  216
1349  227
1350  196
1351  209
1352  206
1353  209
1354  211
1355  186
1356  207
1357  232
1358  186
1359  232
1360  237
1361  220
1362  198
1363  189
1364  218
1365  208
1366  246
1367  232
1368  196
1369  225
1370  212
1371  211
1372  230
1373  207
1374  200
1375  222
1376  217
1377  229
1378  205
1379  198
1380  213
1381  216
1382  199
1383  239
1384  209
1385  239
1386  224
1387  243
1388  215
1389  220
1390  220
1391  225
1392  247
1393  231
1394  233
1395  224
1396  256
1397  224
1398  226
1399  228
1400  224
1401  236
1402  255
1403  208
1404  199
1405  243
1406  239
1407  237
1408  263
1409  231
1410  208
1411  210
1412  216
1413  244
1414  246
1415  232
1416  247
1417  253
1418  229
1419  237
1420  242
1421  219
1422  233
1423  222
1424  256
1425  233
1426  243
1427  252
1428  228
1429  243
1430  220
1431  241
1432  254
1433  246
1434  277
1435  244
1436  217
1437  237
1438  257
1439  259
1440  245
1441  241
1442  255
1443  262
1444  217
1445  246
1446  241
1447  271
1448  242
1449  254
1450  265
1451  235
1452  228
1453  241
1454  234
1455  262
1456  289
1457  243
1458  247
1459  240
1460  246
1461  278
1462  270
1463  271
1464  298
1465  261
1466  246
1467  261
1468  252
1469  247
1470  271
1471  264
1472  262
1473  258
1474  285
1475  258
1476  241
1477  260
1478  288
1479  288
1480  273
1481  274
1482  281
1483  309
1484  267
1485  246
1486  295
1487  283
1488  293
1489  254
1490  280
1491  280
1492  296
1493  296
1494  272
1495  263
1496  258
1497  266
1498  246
1499  286
1500  253
1501  276
1502  301
1503  312
1504  302
1505  319
1506  298
1507  269
1508  291
1509  305
1510  294
1511  342
1512  319
1513  316
1514  291
1515  294
1516  270
1517  309
1518  309
1519  291
1520  323
1521  312
1522  279
1523  306
1524  355
1525  321
1526  326
1527  322
1528  284
1529  323
1530  352
1531  341
1532  303
1533  295
1534  317
1535  368
1536  311
1537  351
1538  333
1539  354
1540  331
1541  337
1542  330
1543  327
1544  326
1545  330
1546  368
1547  350
1548  337
1549  364
1550  370
1551  358
1552  373
1553  359
1554  377
1555  400
1556  387
1557  405
1558  405
1559  428
1560  415
1561  424
1562  449
1563  504
1564  540
1565  591
1566  619
1567  728
1568  802
1569  902
1570  1055
1571  1242
1572  1449
1573  1628
1574  1868
1575  2167
1576  2436
1577  2861
1578  3320
1579  3739
1580  4266
1581  4687
1582  5154
1583  5644
1584  6159
1585  6613
1586  6961
1587  7439
1588  8005
1589  8267
1590  8714
1591  8719
1592  9051
1593  8883
1594  8967
1595  8851
1596  8649
1597  8789
1598  8316
1599  8096
1600  7738
1601  7361
1602  7002
1603  6340
1604  6105
1605  5663
1606  5267
1607  4752
1608  4466
1609  4027
1610  3680
1611  3422
1612  3156
1613  2907
1614  2703
1615  2431
1616  2320
1617  2194
1618  2051
1619  1820
1620  1883
1621  1597
1622  1505
1623  1457
1624  1399
1625  1239
1626  1296
1627  1153
1628  1098
1629  1101
1630  999
1631  935
1632  913
1633  877
1634  838
1635  882
1636  800
1637  751
1638  734
1639  704
1640  638
1641  642
1642  687
1643  648
1644  673
1645  649
1646  681
1647  660
1648  691
1649  715
1650  816
1651  867
1652  1055
1653  1063
1654  1295
1655  1446
1656  1729
1657  1827
1658  2117
1659  2464
1660  2837
1661  3213
1662  3729
1663  4262
1664  5005
1665  5399
1666  5942
1667  6404
1668  7070
1669  7627
1670  8175
1671  8805
1672  9299
1673  9721
1674  10107
1675  10514
1676  10868
1677  10860
1678  10944
1679  11100
1680  11111
1681  11138
1682  10644
1683  10659
1684  10379
1685  10076
1686  9781
1687  9500
1688  8760
1689  8543
1690  7922
1691  7749
1692  7359
1693  6897
1694  6500
1695  6124
1696  5698
1697  5454
1698  5003
1699  4709
1700  4526
1701  4243
1702  3910
1703  3710
1704  3368
1705  3176
1706  3011
1707  2937
1708  2703
1709  2620
1710  2427
1711  2306
1712  2304
1713  2108
1714  2123
1715  1931
1716  1893
1717  1731
1718  1736
1719  1722
1720  1733
1721  1652
1722  1635
1723  1585
1724  1566
1725  1452
1726  1596
1727  1544
1728  1572
1729  1449
1730  1442
1731  1441
1732  1419
1733  1529
1734  1386
1735  1503
1736  1537
1737  1453
1738  1433
1739  1484
1740  1476
1741  1525
1742  1425
1743  1563
1744  1478
1745  1490
1746  1503
1747  1432
1748  1517
1749  1522
1750  1499
1751  1507
1752  1557
1753  1537
1754  1527
1755  1478
1756  1457
1757  1472
1758  1483
1759  1477
1760  1495
1761  1444
1762  1455
1763  1474
1764  1400
1765  1431
1766  1344
1767  1379
1768  1351
1769  1373
1770  1258
1771  1227
1772  1239
1773  1204
1774  1192
1775  1135
1776  1157
1777  1046
1778  1108
1779  1029
1780  1059
1781  1026
1782  965
1783  966
1784  899
1785  873
1786  896
1787  837
1788  816
1789  810
1790  750
1791  714
1792  714
1793  674
1794  696
1795  689
1796  700
1797  702
1798  673
1799  635
1800  641
1801  628
1802  599
1803  576
1804  560
1805  581
1806  537
1807  561
1808  554
1809  586
1810  558
1811  466
1812  524
1813  496
1814  504
1815  488
1816  529
1817  480
1818  473
1819  443
1820  493
1821  486
1822  492
1823  483
1824  513
1825  476
1826  489
1827  520
1828  515
1829  527
1830  546
1831  598
1832  620
1833  674
1834  655
1835  755
1836  852
1837  950
1838  1117
1839  1166
1840  1329
1841  1511
1842  1666
1843  1833
1844  2152
1845  2387
1846  2747
1847  3005
1848  3290
1849  3543
1850  3816
1851  4181
1852  4457
1853  4677
1854  5069
1855  5129
1856  5465
1857  5743
1858  5749
1859  5868
1860  5731
1861  5707
1862  5735
1863  5557
1864  5422
1865  5235
1866  5002
1867  4791
1868  4635
1869  4260
1870  4167
1871  3986
1872  3539
1873  3383
1874  3121
1875  2917
1876  2767
1877  2487
1878  2319
1879  2092
1880  2046
1881  1870
1882  1785
1883  1665
1884  1652
1885  1440
1886  1447
1887  1309
1888  1221
1889  1198
1890  1103
1891  1117
1892  1094
1893  1005
1894  924
1895  913
1896  870
1897  831
1898  817
1899  755
1900  726
1901  702
1902  671
1903  675
1904  707
1905  678
1906  630
1907  625
1908  591
1909  570
1910  608
1911  621
1912  569
1913  567
1914  516
1915  530
1916  559
1917  545
1918  528
1919  524
1920  513
1921  491
1922  463
1923  500
1924  493
1925  469
1926  514
1927  522
1928  489
1929  494
1930  459
1931  476
1932  441
1933  451
1934  455
1935  404
1936  414
1937  469
1938  431
1939  463
1940  462
1941  447
1942  449
1943  487
1944  444
1945  439
1946  448
1947  465
1948  444
1949  459
1950  503
1951  469
1952  472
1953  470
1954  480
1955  430
1956  452
1957  468
1958  480
1959  496
1960  457
1961  426
1962  478
1963  477
1964  451
1965  449
1966  479
1967  460
1968  496
1969  442
1970  454
1971  452
1972  472
1973  481
1974  453
1975  450
1976  469
1977  506
1978  484
1979  452
1980  447
1981  462
1982  429
1983  464
1984  457
1985  491
1986  473
1987  455
1988  516
1989  442
1990  480
1991  468
1992  486
1993  477
1994  463
1995  488
1996  485
1997  504
1998  441
1999  497
2000  472
2001  436
2002  469
2003  433
2004  502
2005  487
2006  498
2007  491
2008  491
2009  473
2010  520
2011  480
2012  519
2013  512
2014  502
2015  514
2016  486
2017  514
2018  504
2019  471
2020  505
2021  522
2022  489
2023  465
2024  509
2025  472
2026  491
2027  506
2028  516
2029  483
2030  481
2031  499
2032  481
2033  511
2034  448
2035  493
2036  500
2037  481
2038  526
2039  477
2040  504
2041  518
2042  492
2043  506
2044  496
2045  523
2046  517
2047  490
2048  465
2049  524
2050  523
2051  505
2052  504
2053  478
2054  496
2055  462
2056  536
2057  468
2058  493
2059  484
2060  486
2061  489
2062  476
2063  534
2064  524
2065  509
2066  477
2067  533
2068  491
2069  480
2070  530
2071  498
2072  513
2073  528
2074  540
2075  529
2076  478
2077  513
2078  512
2079  507
2080  481
2081  522
2082  495
2083  512
2084  537
2085  491
2086  521
2087  535
2088  505
2089  531
2090  494
2091  532
2092  501
2093  526
2094  470
2095  522
2096  503
2097  512
2098  470
2099  510
2100  534
2101  487
2102  467
2103  512
2104  546
2105  541
2106  490
2107  511
2108  469
2109  533
2110  503
2111  496
2112  580
2113  513
2114  542
2115  523
2116  523
2117  562
2118  531
2119  501
2120  474
2121  517
2122  547
2123  496
2124  513
2125  525
2126  495
2127  564
2128  499
2129  527
2130  494
2131  530
2132  537
2133  504
2134  489
2135  516
2136  519
2137  506
2138  532
2139  538
2140  507
2141  486
2142  555
2143  534
2144  538
2145  481
2146  544
2147  528
2148  521
2149  557
2150  524
2151  556
2152  537
2153  565
2154  548
2155  544
2156  539
2157  490
2158  535
2159  530
2160  569
2161  513
2162  539
2163  485
2164  564
2165  524
2166  537
2167  559
2168  519
2169  516
2170  533
2171  550
2172  563
2173  540
2174  502
2175  536
2176  547
2177  540
2178  498
2179  548
2180  522
2181  527
2182  511
2183  512
2184  539
2185  579
2186  523
2187  533
2188  518
2189  545
2190  598
2191  585
2192  526
2193  502
2194  507
2195  535
2196  604
2197  532
2198  530
2199  533
2200  554
2201  522
2202  541
2203  559
2204  556
2205  522
2206  534
2207  531
2208  531
2209  515
2210  524
2211  542
2212  510
2213  530
2214  535
2215  565
2216  539
2217  533
2218  532
2219  539
2220  559
2221  578
2222  566
2223  561
2224  566
2225  562
2226  564
2227  539
2228  543
2229  556
2230  522
2231  522
2232  505
2233  543
2234  527
2235  521
2236  592
2237  538
2238  528
2239  577
2240  535
2241  596
2242  538
2243  507
2244  514
2245  542
2246  562
2247  530
2248  596
2249  568
2250  539
2251  563
2252  559
2253  561
2254  525
2255  550
2256  537
2257  578
2258  560
2259  570
2260  564
2261  496
2262  573
2263  598
2264  588
2265  536
2266  571
2267  590
2268  562
2269  567
2270  579
2271  572
2272  539
2273  552
2274  556
2275  573
2276  550
2277  595
2278  573
2279  587
2280  576
2281  535
2282  561
2283  524
2284  576
2285  576
2286  563
2287  541
2288  603
2289  574
2290  529
2291  586
2292  557
2293  542
2294  536
2295  523
2296  529
2297  520
2298  576
2299  539
2300  595
2301  539
2302  572
2303  601
2304  582
2305  551
2306  531
2307  541
2308  467
2309  544
2310  536
2311  545
2312  563
2313  573
2314  545
2315  542
2316  544
2317  513
2318  554
2319  539
2320  568
2321  576
2322  566
2323  547
2324  573
2325  575
2326  568
2327  580
2328  586
2329  518
2330  578
2331  570
2332  552
2333  520
2334  592
2335  561
2336  545
2337  560
2338  562
2339  588
2340  517
2341  620
2342  558
2343  582
2344  585
2345  569
2346  570
2347  557
2348  554
2349  605
2350  539
2351  612
2352  568
2353  562
2354  614
2355  585
2356  602
2357  524
2358  586
2359  570
2360  594
2361  568
2362  516
2363  590
2364  566
2365  582
2366  525
2367  571
2368  558
2369  611
2370  559
2371  562
2372  579
2373  566
2374  542
2375  566
2376  571
2377  563
2378  552
2379  568
2380  604
2381  555
2382  570
2383  620
2384  566
2385  546
2386  537
2387  596
2388  578
2389  550
2390  540
2391  571
2392  579
2393  579
2394  592
2395  578
2396  575
2397  541
2398  559
2399  576
2400  554
2401  544
2402  581
2403  584
2404  544
2405  592
2406  566
2407  563
2408  584
2409  546
2410  584
2411  550
2412  562
2413  555
2414  563
2415  538
2416  597
2417  516
2418  535
2419  544
2420  566
2421  566
2422  541
2423  568
2424  598
2425  560
2426  589
2427  555
2428  557
2429  584
2430  527
2431  520
2432  572
2433  590
2434  577
2435  549
2436  591
2437  540
2438  561
2439  525
2440  591
2441  563
2442  566
2443  518
2444  560
2445  555
2446  583
2447  602
2448  570
2449  564
2450  526
2451  584
2452  547
2453  551
2454  551
2455  555
2456  536
2457  559
2458  555
2459  561
2460  535
2461  569
2462  585
2463  574
2464  521
2465  595
2466  577
2467  557
2468  586
2469  531
2470  529
2471  526
2472  523
2473  525
2474  544
2475  578
2476  543
2477  584
2478  554
2479  600
2480  525
2481  550
2482  581
2483  558
2484  535
2485  554
2486  522
2487  562
2488  583
2489  556
2490  533
2491  534
2492  513
2493  565
2494  557
2495  539
2496  524
2497  533
2498  513
2499  554
2500  519
2501  577
2502  563
2503  512
2504  531
2505  523
2506  505
2507  507
2508  542
2509  529
2510  521
2511  586
2512  520
2513  516
2514  553
2515  537
2516  525
2517  549
2518  548
2519  525
2520  537
2521  563
2522  550
2523  548
2524  574
2525  530
2526  510
2527  563
2528  530
2529  524
2530  544
2531  555
2532  535
2533  507
2534  532
2535  515
2536  577
2537  554
2538  536
2539  516
2540  530
2541  550
2542  534
2543  517
2544  504
2545  551
2546  529
2547  498
2548  523
2549  527
2550  531
2551  551
2552  522
2553  518
2554  563
2555  537
2556  498
2557  498
2558  542
2559  520
2560  525
2561  497
2562  490
2563  523
2564  485
2565  510
2566  499
2567  484
2568  492
2569  521
2570  494
2571  529
2572  568
2573  506
2574  502
2575  509
2576  510
2577  485
2578  486
2579  481
2580  492
2581  494
2582  490
2583  496
2584  495
2585  496
2586  519
2587  464
2588  517
2589  498
2590  511
2591  489
2592  483
2593  492
2594  490
2595  482
2596  496
2597  495
2598  526
2599  475
2600  471
2601  487
2602  521
2603  518
2604  450
2605  505
2606  458
2607  440
2608  466
2609  477
2610  470
2611  429
2612  506
2613  477
2614  472
2615  484
2616  457
2617  465
2618  486
2619  459
2620  487
2621  492
2622  480
2623  468
2624  448
2625  470
2626  466
2627  432
2628  433
2629  502
2630  466
2631  464
2632  479
2633  448
2634  438
2635  447
2636  477
2637  439
2638  457
2639  389
2640  444
2641  448
2642  420
2643  448
2644  441
2645  455
2646  468
2647  436
2648  479
2649  439
2650  468
2651  424
2652  427
2653  450
2654  442
2655  451
2656  419
2657  418
2658  410
2659  401
2660  436
2661  407
2662  386
2663  435
2664  422
2665  447
2666  411
2667  426
2668  414
2669  434
2670  442
2671  472
2672  409
2673  439
2674  399
2675  416
2676  420
2677  457
2678  411
2679  433
2680  427
2681  416
2682  398
2683  424
2684  404
2685  428
2686  386
2687  428
2688  377
2689  430
2690  396
2691  356
2692  409
2693  396
2694  381
2695  396
2696  386
2697  402
2698  423
2699  405
2700  408
2701  429
2702  412
2703  431
2704  422
2705  404
2706  404
2707  387
2708  409
2709  407
2710  413
2711  392
2712  379
2713  373
2714  395
2715  389
2716  384
2717  394
2718  333
2719  362
2720  421
2721  386
2722  364
2723  357
2724  361
2725  355
2726  372
2727  387
2728  349
2729  390
2730  390
2731  380
2732  358
2733  374
2734  360
2735  322
2736  385
2737  375
2738  358
2739  358
2740  357
2741  355
2742  352
2743  338
2744  340
2745  360
2746  344
2747  368
2748  371
2749  366
2750  334
2751  333
2752  382
2753  299
2754  321
2755  343
2756  333
2757  342
2758  328
2759  312
2760  347
2761  339
2762  325
2763  348
2764  339
2765  350
2766  346
2767  334
2768  351
2769  306
2770  340
2771  320
2772  350
2773  324
2774  345
2775  339
2776  359
2777  287
2778  317
2779  282
2780  309
2781  314
2782  278
2783  295
2784  321
2785  314
2786  314
2787  292
2788  310
2789  311
2790  298
2791  331
2792  306
2793  286
2794  287
2795  316
2796  295
2797  299
2798  334
2799  314
2800  308
2801  300
2802  311
2803  275
2804  267
2805  293
2806  297
2807  258
2808  292
2809  254
2810  264
2811  294
2812  274
2813  247
2814  260
2815  267
2816  240
2817  293
2818  281
2819  237
2820  240
2821  258
2822  267
2823  247
2824  232
2825  260
2826  274
2827  251
2828  259
2829  247
2830  221
2831  230
2832  247
2833  243
2834  246
2835  275
2836  246
2837  245
2838  253
2839  251
2840  247
2841  269
2842  254
2843  238
2844  235
2845  243
2846  209
2847  250
2848  219
2849  238
2850  243
2851  264
2852  223
2853  248
2854  217
2855  237
2856  218
2857  218
2858  243
2859  237
2860  229
2861  221
2862  246
2863  237
2864  219
2865  214
2866  239
2867  238
2868  268
2869  252
2870  240
2871  213
2872  240
2873  247
2874  211
2875  227
2876  212
2877  215
2878  237
2879  230
2880  218
2881  247
2882  216
2883  220
2884  197
2885  199
2886  221
2887  187
2888  233
2889  207
2890  204
2891  221
2892  183
2893  208
2894  223
2895  205
2896  219
2897  233
2898  204
2899  217
2900  247
2901  208
2902  202
2903  188
2904  210
2905  215
2906  216
2907  206
2908  198
2909  193
2910  196
2911  228
2912  239
2913  208
2914  208
2915  233
2916  215
2917  199
2918  185
2919  212
2920  191
2921  202
2922  221
2923  211
2924  216
2925  204
2926  203
2927  223
2928  195
2929  189
2930  221
2931  204
2932  210
2933  197
2934  216
2935  189
2936  246
2937  199
2938  189
2939  214
2940  176
2941  199
2942  185
2943  218
2944  194
2945  218
2946  210
2947  195
2948  229
2949  217
2950  176
2951  182
2952  215
2953  223
2954  230
2955  178
2956  183
2957  197
2958  192
2959  208
2960  203
2961  210
2962  185
2963  186
2964  171
2965  200
2966  186
2967  174
2968  203
2969  179
2970  177
2971  212
2972  177
2973  196
2974  196
2975  205
2976  201
2977  166
2978  205
2979  177
2980  203
2981  212
2982  190
2983  185
2984  181
2985  173
2986  158
2987  183
2988  200
2989  186
2990  189
2991  179
2992  167
2993  176
2994  196
2995  192
2996  182
2997  197
2998  172
2999  195
3000  188
3001  199
3002  193
3003  188
3004  176
3005  189
3006  206
3007  150
3008  212
3009  218
3010  183
3011  173
3012  196
3013  192
3014  181
3015  183
3016  198
3017  186
3018  172
3019  196
3020  198
3021  177
3022  200
3023  171
3024  188
3025  191
3026  163
3027  183
3028  170
3029  212
3030  195
3031  173
3032  187
3033  191
3034  174
3035  192
3036  168
3037  162
3038  178
3039  175
3040  198
3041  187
3042  188
3043  190
3044  178
3045  198
3046  184
3047  173
3048  202
3049  167
3050  179
3051  165
3052  171
3053  202
3054  175
3055  195
3056  193
3057  158
3058  173
3059  177
3060  168
3061  203
3062  179
3063  176
3064  178
3065  178
3066  180
3067  221
3068  167
3069  174
3070  173
3071  149
3072  169
3073  185
3074  180
3075  191
3076  174
3077  180
3078  163
3079  159
3080  162
3081  171
3082  162
3083  165
3084  174
3085  174
3086  154
3087  164
3088  168
3089  166
3090  183
3091  180
3092  177
3093  181
3094  185
3095  175
3096  174
3097  177
3098  176
3099  191
3100  169
3101  156
3102  182
3103  167
3104  183
3105  152
3106  179
3107  170
3108  169
3109  155
3110  142
3111  148
3112  167
3113  155
3114  198
3115  199
3116  175
3117  152
3118  162
3119  164
3120  168
3121  168
3122  192
3123  188
3124  179
3125  165
3126  166
3127  169
3128  162
3129  152
3130  193
3131  173
3132  169
3133  195
3134  161
3135  154
3136  179
3137  156
3138  182
3139  136
3140  158
3141  195
3142  157
3143  174
3144  186
3145  163
3146  180
3147  162
3148  171
3149  184
3150  192
3151  150
3152  180
3153  199
3154  180
3155  166
3156  162
3157  205
3158  172
3159  177
3160  178
3161  196
3162  182
3163  184
3164  160
3165  167
3166  218
3167  183
3168  186
3169  175
3170  190
3171  167
3172  198
3173  155
3174  184
3175  221
3176  229
3177  182
3178  159
3179  201
3180  187
3181  186
3182  156
3183  197
3184  206
3185  191
3186  202
3187  173
3188  194
3189  176
3190  177
3191  194
3192  232
3193  230
3194  189
3195  190
3196  215
3197  194
3198  160
3199  183
3200  212
3201  201
3202  179
3203  178
3204  199
3205  204
3206  201
3207  180
3208  197
3209  198
3210  204
3211  170
3212  203
3213  194
3214  217
3215  227
3216  201
3217  205
3218  191
3219  176
3220  190
3221  207
3222  191
3223  197
3224  192
3225  227
3226  218
3227  212
3228  237
3229  202
3230  188
3231  204
3232  180
3233  203
3234  199
3235  214
3236  215
3237  213
3238  225
3239  223
3240  231
3241  222
3242  194
3243  194
3244  201
3245  240
3246  208
3247  224
3248  218
3249  227
3250  206
3251  224
3252  207
3253  216
3254  234
3255  194
3256  202
3257  199
3258  228
3259  212
3260  224
3261  242
3262  204
3263  202
3264  209
3265  233
3266  231
3267  223
3268  208
3269  213
3270  225
3271  223
3272  222
3273  236
3274  229
3275  215
3276  205
3277  260
3278  222
3279  232
3280  209
3281  230
3282  219
3283  225
3284  211
3285  213
3286  218
3287  251
3288  214
3289  241
3290  241
3291  224
3292  215
3293  241
3294  227
3295  243
3296  223
3297  220
3298  237
3299  243
3300  205
3301  221
3302  244
3303  226
3304  224
3305  256
3306  238
3307  260
3308  223
3309  238
3310  211
3311  237
3312  232
3313  272
3314  259
3315  245
3316  211
3317  290
3318  244
3319  245
3320  262
3321  238
3322  254
3323  272
3324  218
3325  239
3326  232
3327  206
3328  255
3329  223
3330  256
3331  238
3332  265
3333  278
3334  233
3335  233
3336  237
3337  255
3338  242
3339  251
3340  247
3341  269
3342  260
3343  269
3344  267
3345  257
3346  251
3347  271
3348  273
3349  229
3350  264
3351  261
3352  257
3353  256
3354  281
3355  269
3356  284
3357  260
3358  262
3359  299
3360  254
3361  276
3362  262
3363  258
3364  272
3365  245
3366  269
3367  262
3368  255
3369  277
3370  273
3371  294
3372  263
3373  298
3374  271
3375  297
3376  283
3377  316
3378  272
3379  310
3380  297
3381  271
3382  263
3383  310
3384  290
3385  271
3386  322
3387  331
3388  300
3389  293
3390  268
3391  312
3392  315
3393  299
3394  285
3395  333
3396  324
3397  301
3398  271
3399  309
3400  284
3401  338
3402  312
3403  309
3404  326
3405  306
3406  332
3407  352
3408  297
3409  322
3410  302
3411  312
3412  310
3413  312
3414  350
3415  371
3416  294
3417  319
3418  333
3419  338
3420  339
3421  319
3422  343
3423  327
3424  316
3425  334
3426  352
3427  292
3428  328
3429  351
3430  351
3431  356
3432  368
3433  365
3434  362
3435  411
3436  344
3437  352
3438  398
3439  375
3440  378
3441  396
3442  412
3443  444
3444  498
3445  511
3446  565
3447  638
3448  677
3449  726
3450  847
3451  995
3452  1115
3453  1329
3454  1486
3455  1746
3456  2005
3457  2278
3458  2589
3459  3040
3460  3385
3461  3776
3462  4233
3463  4798
3464  5334
3465  5751
3466  6224
3467  6778
3468  7195
3469  7688
3470  7998
3471  8465
3472  8707
3473  8709
3474  8791
3475  8948
3476  8919
3477  8802
3478  8672
3479  8265
3480  8084
3481  7618
3482  7290
3483  7162
3484  6612
3485  6271
3486  5812
3487  5400
3488  5039
3489  4672
3490  4231
3491  3971
3492  3475
3493  3369
3494  2992
3495  2769
3496  2641
3497  2415
3498  2187
3499  2055
3500  1902
3501  1822
3502  1643
3503  1637
3504  1451
3505  1416
3506  1326
3507  1208
3508  1138
3509  1145
3510  1057
3511  986
3512  1028
3513  953
3514  891
3515  852
3516  790
3517  770
3518  777
3519  703
3520  688
3521  671
3522  716
3523  682
3524  626
3525  639
3526  625
3527  645
3528  677
3529  679
3530  727
3531  705
3532  788
3533  931
3534  1035
3535  1168
3536  1334
3537  1535
3538  1721
3539  1899
3540  2237
3541  2613
3542  3086
3543  3429
3544  3911
3545  4368
3546  4917
3547  5329
3548  5895
3549  6606
3550  7246
3551  7874
3552  8243
3553  8887
3554  9324
3555  9772
3556  10159
3557  10612
3558  10597
3559  10525
3560  10785
3561  10917
3562  10733
3563  10641
3564  10541
3565  10206
3566  10027
3567  9643
3568  9480
3569  8898
3570  8622
3571  8313
3572  7799
3573  7441
3574  7090
3575  6762
3576  6302
3577  5938
3578  5610
3579  5293
3580  4969
3581  4692
3582  4282
3583  4005
3584  3812
3585  3512
3586  3355
3587  3202
3588  3063
3589  2780
3590  2629
3591  2518
3592  2475
3593  2298
3594  2193
3595  2131
3596  1994
3597  1918
3598  1863
3599  1752
3600  1727
3601  1672
3602  1625
3603  1660
3604  1582
3605  1505
3606  1561
3607  1492
3608  1507
3609  1472
3610  1428
3611  1541
3612  1476
3613  1454
3614  1467
3615  1536
3616  1427
3617  1421
3618  1506
3619  1527
3620  1478
3621  1390
3622  1478
3623  1461
3624  1505
3625  1381
3626  1505
3627  1456
3628  1510
3629  1479
3630  1535
3631  1533
3632  1492
3633  1446
3634  1558
3635  1554
3636  1535
3637  1514
3638  1488
3639  1598
3640  1405
3641  1450
3642  1487
3643  1433
3644  1467
3645  1373
3646  1404
3647  1391
3648  1364
3649  1402
3650  1313
3651  1352
3652  1282
3653  1250
3654  1286
3655  1176
3656  1195
3657  1146
3658  1117
3659  1109
3660  1096
3661  1079
3662  989
3663  965
3664  996
3665  962
3666  993
3667  924
3668  864
3669  852
3670  806
3671  812
3672  794
3673  766
3674  725
3675  755
3676  688
3677  677
3678  737
3679  659
3680  650
3681  657
3682  630
3683  591
3684  595
3685  609
3686  550
3687  548
3688  565
3689  545
3690  519
3691  532
3692  507
3693  492
3694  506
3695  503
3696  459
3697  472
3698  510
3699  517
3700  512
3701  452
3702  474
3703  521
3704  468
3705  441
3706  496
3707  472
3708  518
3709  502
3710  469
3711  578
3712  602
3713  565
3714  608
3715  679
3716  682
3717  819
3718  895
3719  933
3720  1012
3721  1212
3722  1376
3723  1511
3724  1658
3725  1926
3726  2220
3727  2410
3728  2756
3729  2994
3730  3370
3731  3623
3732  3880
3733  4120
3734  4604
3735  4800
3736  5093
3737  5286
3738  5267
3739  5620
3740  5805
3741  5848
3742  5895
3743  5842
3744  5624
3745  5453
3746  5450
3747  5302
3748  5129
3749  4975
3750  4710
3751  4307
3752  4065
3753  3752
3754  3632
3755  3407
3756  3111
3757  2997
3758  2744
3759  2544
3760  2320
3761  2196
3762  2051
3763  1879
3764  1746
3765  1703
3766  1602
3767  1522
3768  1416
3769  1305
3770  1258
3771  1223
3772  1089
3773  1132
3774  1038
3775  998
3776  933
3777  877
3778  855
3779  886
3780  894
3781  814
3782  770
3783  673
3784  696
3785  716
3786  686
3787  626
3788  633
3789  627
3790  603
3791  563
3792  529
3793  540
3794  535
3795  535
3796  541
3797  560
3798  533
3799  507
3800  524
3801  465
3802  514
3803  478
3804  462
3805  496
3806  482
3807  512
3808  463
3809  476
3810  486
3811  446
3812  455
3813  450
3814  528
3815  480
3816  468
3817  433
3818  481
3819  525
3820  481
3821  487
3822  458
3823  449
3824  433
3825  490
3826  420
3827  467
3828  480
3829  472
3830  459
3831  478
3832  443
3833  441
3834  494
3835  449
3836  455
3837  487
3838  478
3839  456
3840  0
3841  0
3842  0
3843  0
3844  0
3845  0
3846  0
3847  0
3848  0
3849  0
3850  0
3851  0
3852  0
3853  0
3854  0
3855  0
3856  0
3857  0
3858  0
3859  0
3860  0
3861  0
3862  0
3863  0
3864  0
3865  0
3866  0
3867  0
3868  0
3869  0
3870  0
3871  0
3872  0
3873  0
3874  0
3875  0
3876  0
3877  0
3878  0
3879  0
3880  0
3881  0
3882  0
3883  0
3884  0
3885  0
3886  0
3887  0
3888  0
3889  0
3890  0
3891  0
3892  0
3893  0
3894  0
3895  0
3896  0
3897  0
3898  0
3899  0
3900  0
3901  0
3902  0
3903  0
3904  0
3905  0
3906  0
3907  0
3908  0
3909  0
3910  0
3911  0
3912  0
3913  0
3914  0
3915  0
3916  0
3917  0
3918  0
3919  0
3920  0
3921  0
3922  0
3923  0
3924  0
3925  0
3926  0
3927  0
3928  0
3929  0
3930  0
3931  0
3932  0
3933  0
3934  0
3935  0
3936  0
3937  0
3938  0
3939  0
3940  0
3941  0
3942  0
3943  0
3944  0
3945  0
3946  0
3947  0
3948  0
3949  0
3950  0
3951  0
3952  0
3953  0
3954  0
3955  0
3956  0
3957  0
3958  0
3959  0
3960  0
3961  0
3962  0
3963  0
3964  0
3965  0
3966  0
3967  0
3968  0
3969  0
3970  0
3971  0
3972  0
3973  0
3974  0
3975  0
3976  0
3977  0
3978  0
3979  0
3980  0
3981  0
3982  0
3983  0
3984  0
3985  0
3986  0
3987  0
3988  0
3989  0
3990  0
3991  0
3992  0
3993  0
3994  0
3995  0
3996  0
3997  0
3998  0
3999  0
4000  0
4001  0
4002  0
4003  0
4004  0
4005  0
4006  0
4007  0
4008  0
4009  0
4010  0
4011  0
4012  0
4013  0
4014  0
4015  0
4016  0
4017  0
4018  0
4019  0
4020  0
4021  0
4022  0
4023  0
4024  0
4025  0
4026  0
4027  0
4028  0
4029  0
4030  0
4031  0
4032  0
4033  0
4034  0
4035  0
4036  0
4037  0
4038  0
4039  0
4040  0
4041  0
4042  0
4043  0
4044  0
4045  0
4046  0
4047  0
4048  0
4049  0
4050  0
4051  0
4052  0
4053  0
4054  0
4055  0
4056  0
4057  0
4058  0
4059  0
4060  0
4061  0
4062  0
4063  0
4064  0
4065  0
4066  0
4067  0
4068  0
4069  0
4070  0
4071  0
4072  0
4073  0
4074  0
4075  0
4076  0
4077  0
4078  0
4079  0
4080  0
4081  0
4082  0
4083  0
4084  0
4085  0
4086  0
4087  0
4088  0
4089  0
4090  0
4091  0
4092  0
4093  0
4094  0
4095  0
