0  1115
1  1296
2  1595
3  1881
4  2121
5  2472
6  2833
7  3103
8  3416
9  3631
10  3917
11  4170
12  4202
13  4446
14  4359
15  4448
16  4352
17  4225
18  4161
19  3850
20  3578
21  3342
22  3195
23  2774
24  2470
25  2149
26  1894
27  1648
28  1415
29  1141
30  888
31  809
32  610
33  500
34  358
35  309
36  222
37  168
38  126
39  81
40  57
41  44
42  29
43  25
44  16
45  9
46  9
47  5
48  5
49  3
50  1
51  3
52  1
53  0
54  0
55  0
56  0
57  0
58  0
59  1
60  0
61  0
62  1
63  0
64  0
65  0
66  0
67  0
68  0
69  0
70  0
71  0
72  0
73  0
74  0
75  0
76  0
77  0
78  0
79  0
80  0
81  0
82  0
83  0
84  0
85  0
86  0
87  0
88  0
89  0
90  0
91  0
92  0
93  0
94  0
95  0
96  0
97  0
98  0
99  0
100  0
101  0
102  0
103  0
104  0
105  0
106  0
107  0
108  0
109  0
110  0
111  0
112  0
113  0
114  0
115  0
116  0
117  0
118  0
119  0
120  0
121  0
122  0
123  0
124  0
125  0
126  0
127  0
128  0
129  0
130  0
131  1
132  0
133  0
134  0
135  0
136  0
137  0
138  0
139  1
140  0
141  0
142  0
143  0
144  0
145  0
146  0
147  0
148  0
149  0
150  0
151  0
152  0
153  0
154  0
155  0
156  0
157  0
158  0
159  0
160  0
161  0
162  0
163  0
164  0
165  0
166  0
167  0
168  0
169  0
170  0
171  0
172  1
173  0
174  0
175  0
176  0
177  1
178  0
179  0
180  1
181  1
182  0
183  0
184  1
185  2
186  1
187  1
188  0
189  6
190  10
191  6
192  7
193  17
194  17
195  34
196  38
197  38
198  51
199  72
200  81
201  104
202  128
203  166
204  171
205  224
206  241
207  263
208  334
209  386
210  366
211  393
212  483
213  463
214  558
215  592
216  560
217  624
218  630
219  635
220  633
221  606
222  581
223  642
224  562
225  602
226  539
227  506
228  466
229  470
230  416
231  400
232  334
233  331
234  290
235  290
236  257
237  218
238  241
239  224
240  191
241  174
242  175
243  172
244  190
245  158
246  169
247  149
248  143
249  119
250  153
251  156
252  126
253  152
254  152
255  129
256  136
257  131
258  156
259  136
260  122
261  139
262  138
263  106
264  134
265  118
266  122
267  131
268  138
269  141
270  162
271  134
272  128
273  141
274  159
275  146
276  121
277  156
278  138
279  143
280  152
281  115
282  131
283  128
284  127
285  144
286  142
287  137
288  148
289  142
290  129
291  142
292  139
293  157
294  125
295  136
296  144
297  142
298  155
299  150
300  142
301  137
302  158
303  149
304  133
305  142
306  134
307  173
308  132
309  141
310  142
311  131
312  131
313  142
314  125
315  126
316  131
317  150
318  150
319  133
320  137
321  141
322  126
323  130
324  144
325  152
326  149
327  125
328  146
329  144
330  142
331  125
332  138
333  133
334  147
335  155
336  150
337  125
338  144
339  135
340  153
341  151
342  158
343  125
344  136
345  145
346  124
347  139
348  121
349  151
350  150
351  132
352  126
353  122
354  141
355  153
356  128
357  189
358  157
359  151
360  144
361  139
362  132
363  123
364  131
365  143
366  141
367  132
368  161
369  154
370  136
371  148
372  175
373  129
374  158
375  162
376  142
377  145
378  146
379  145
380  167
381  156
382  148
383  138
384  159
385  117
386  117
387  150
388  167
389  149
390  166
391  164
392  126
393  133
394  130
395  141
396  159
397  154
398  137
399  147
400  155
401  140
402  165
403  147
404  151
405  149
406  159
407  145
408  146
409  144
410  163
411  149
412  143
413  140
414  153
415  144
416  147
417  147
418  170
419  143
420  158
421  133
422  127
423  160
424  147
425  127
426  140
427  157
428  149
429  152
430  148
431  140
432  163
433  129
434  143
435  157
436  141
437  145
438  176
439  152
440  142
441  138
442  144
443  176
444  169
445  156
446  140
447  154
448  156
449  160
450  161
451  130
452  142
453  155
454  156
455  147
456  148
457  140
458  157
459  150
460  157
461  149
462  131
463  146
464  144
465  143
466  146
467  145
468  134
469  163
470  183
471  130
472  144
473  147
474  147
475  150
476  157
477  150
478  139
479  166
480  128
481  134
482  161
483  168
484  159
485  165
486  154
487  173
488  158
489  170
490  145
491  149
492  133
493  138
494  138
495  141
496  146
497  146
498  158
499  162
500  137
501  162
502  158
503  149
504  145
505  165
506  150
507  141
508  148
509  147
510  132
511  162
512  155
513  152
514  169
515  164
516  154
517  159
518  148
519  145
520  150
521  144
522  139
523  185
524  166
525  148
526  172
527  158
528  153
529  174
530  166
531  161
532  147
533  145
534  152
535  138
536  161
537  149
538  157
539  142
540  140
541  161
542  151
543  166
544  141
545  139
546  164
547  153
548  153
549  163
550  155
551  145
552  137
553  168
554  168
555  156
556  141
557  135
558  138
559  140
560  131
561  139
562  162
563  148
564  169
565  149
566  139
567  142
568  161
569  174
570  150
571  159
572  158
573  152
574  145
575  144
576  152
577  151
578  167
579  139
580  152
581  159
582  166
583  151
584  137
585  147
586  164
587  153
588  151
589  139
590  157
591  142
592  147
593  122
594  155
595  127
596  139
597  145
598  158
599  155
600  144
601  168
602  151
603  146
604  150
605  146
606  141
607  156
608  141
609  175
610  149
611  153
612  153
613  148
614  145
615  145
616  153
617  157
618  140
619  126
620  138
621  142
622  171
623  141
624  131
625  134
626  156
627  129
628  141
629  150
630  126
631  134
632  140
633  132
634  164
635  156
636  154
637  154
638  161
639  149
640  146
641  138
642  159
643  151
644  149
645  138
646  140
647  141
648  145
649  130
650  145
651  143
652  146
653  148
654  163
655  141
656  162
657  152
658  179
659  143
660  152
661  132
662  162
663  146
664  167
665  136
666  143
667  135
668  146
669  150
670  136
671  161
672  141
673  157
674  142
675  146
676  153
677  139
678  157
679  132
680  158
681  143
682  135
683  152
684  153
685  151
686  144
687  151
688  154
689  160
690  156
691  149
692  151
693  152
694  150
695  134
696  133
697  149
698  129
699  136
700  120
701  120
702  142
703  148
704  149
705  127
706  160
707  132
708  129
709  142
710  134
711  141
712  131
713  125
714  145
715  125
716  147
717  155
718  137
719  138
720  111
721  143
722  107
723  117
724  149
725  124
726  134
727  154
728  147
729  132
730  136
731  149
732  138
733  159
734  132
735  125
736  132
737  134
738  122
739  140
740  137
741  138
742  132
743  144
744  155
745  113
746  122
747  124
748  139
749  146
750  129
751  129
752  133
753  136
754  121
755  128
756  119
757  109
758  128
759  134
760  134
761  131
762  124
763  123
764  133
765  108
766  117
767  136
768  132
769  122
770  116
771  123
772  132
773  131
774  115
775  125
776  118
777  144
778  114
779  108
780  147
781  120
782  120
783  119
784  107
785  121
786  127
787  133
788  110
789  143
790  143
791  86
792  111
793  126
794  129
795  138
796  130
797  125
798  127
799  119
800  136
801  114
802  116
803  135
804  139
805  114
806  113
807  110
808  108
809  117
810  123
811  108
812  124
813  120
814  114
815  119
816  134
817  119
818  112
819  126
820  104
821  105
822  120
823  124
824  106
825  120
826  122
827  119
828  119
829  108
830  119
831  120
832  110
833  126
834  120
835  118
836  119
837  115
838  120
839  115
840  109
841  120
842  131
843  113
844  97
845  100
846  106
847  127
848  121
849  98
850  112
851  114
852  118
853  108
854  114
855  95
856  94
857  97
858  99
859  99
860  109
861  108
862  105
863  102
864  100
865  115
866  98
867  99
868  80
869  98
870  102
871  88
872  102
873  113
874  116
875  106
876  90
877  111
878  108
879  106
880  92
881  99
882  99
883  88
884  96
885  95
886  92
887  112
888  114
889  94
890  102
891  104
892  96
893  89
894  93
895  93
896  88
897  99
898  94
899  86
900  98
901  102
902  89
903  105
904  70
905  73
906  107
907  89
908  87
909  79
910  94
911  81
912  91
913  85
914  95
915  105
916  88
917  82
918  80
919  100
920  88
921  70
922  77
923  87
924  88
925  77
926  79
927  98
928  66
929  80
930  70
931  91
932  99
933  72
934  79
935  65
936  81
937  82
938  75
939  70
940  73
941  66
942  68
943  67
944  75
945  60
946  75
947  84
948  71
949  73
950  92
951  70
952  63
953  76
954  82
955  63
956  75
957  74
958  74
959  81
960  68
961  54
962  81
963  64
964  68
965  73
966  92
967  72
968  58
969  72
970  82
971  59
972  79
973  60
974  57
975  49
976  74
977  70
978  70
979  72
980  65
981  56
982  72
983  47
984  58
985  67
986  73
987  57
988  74
989  62
990  61
991  53
992  57
993  68
994  56
995  61
996  69
997  70
998  59
999  65
1000  69
1001  57
1002  58
1003  70
1004  62
1005  65
1006  53
1007  61
1008  45
1009  47
1010  53
1011  58
1012  50
1013  58
1014  58
1015  53
1016  44
1017  65
1018  49
1019  53
1020  66
1021  51
1022  63
1023  61
1024  44
1025  53
1026  46
1027  53
1028  71
1029  48
1030  69
1031  50
1032  67
1033  45
1034  53
1035  67
1036  49
1037  60
1038  54
1039  49
1040  61
1041  47
1042  59
1043  56
1044  59
1045  54
1046  63
1047  49
1048  56
1049  53
1050  53
1051  69
1052  66
1053  52
1054  58
1055  64
1056  64
1057  62
1058  62
1059  55
1060  53
1061  54
1062  52
1063  64
1064  55
1065  46
1066  70
1067  40
1068  56
1069  41
1070  46
1071  54
1072  59
1073  58
1074  53
1075  49
1076  59
1077  58
1078  55
1079  64
1080  55
1081  41
1082  48
1083  42
1084  54
1085  47
1086  51
1087  67
1088  59
1089  54
1090  48
1091  44
1092  66
1093  41
1094  65
1095  61
1096  48
1097  57
1098  55
1099  53
1100  47
1101  62
1102  44
1103  63
1104  60
1105  61
1106  49
1107  71
1108  72
1109  49
1110  47
1111  42
1112  59
1113  46
1114  48
1115  52
1116  47
1117  67
1118  48
1119  50
1120  63
1121  53
1122  69
1123  43
1124  55
1125  47
1126  55
1127  43
1128  64
1129  60
1130  59
1131  48
1132  41
1133  42
1134  46
1135  56
1136  59
1137  56
1138  46
1139  50
1140  44
1141  41
1142  58
1143  48
1144  42
1145  57
1146  46
1147  57
1148  52
1149  43
1150  51
1151  42
1152  43
1153  61
1154  45
1155  34
1156  51
1157  46
1158  48
1159  42
1160  45
1161  40
1162  45
1163  33
1164  43
1165  37
1166  48
1167  36
1168  47
1169  51
1170  55
1171  48
1172  43
1173  41
1174  55
1175  38
1176  33
1177  42
1178  46
1179  40
1180  42
1181  44
1182  51
1183  40
1184  42
1185  43
1186  48
1187  43
1188  39
1189  47
1190  34
1191  47
1192  51
1193  38
1194  48
1195  38
1196  41
1197  34
1198  23
1199  42
1200  40
1201  26
1202  39
1203  40
1204  34
1205  54
1206  45
1207  40
1208  45
1209  39
1210  32
1211  50
1212  33
1213  34
1214  35
1215  38
1216  38
1217  48
1218  47
1219  46
1220  35
1221  43
1222  41
1223  50
1224  47
1225  46
1226  40
1227  51
1228  47
1229  24
1230  43
1231  35
1232  47
1233  38
1234  49
1235  38
1236  39
1237  39
1238  42
1239  30
1240  39
1241  35
1242  26
1243  42
1244  35
1245  39
1246  48
1247  59
1248  52
1249  28
1250  45
1251  23
1252  38
1253  46
1254  39
1255  37
1256  36
1257  28
1258  41
1259  32
1260  37
1261  40
1262  38
1263  40
1264  42
1265  43
1266  36
1267  35
1268  42
1269  38
1270  38
1271  33
1272  37
1273  43
1274  47
1275  44
1276  29
1277  38
1278  39
1279  36
1280  38
1281  34
1282  54
1283  45
1284  28
1285  51
1286  40
1287  52
1288  42
1289  48
1290  55
1291  43
1292  41
1293  38
1294  55
1295  39
1296  36
1297  39
1298  42
1299  49
1300  37
1301  55
1302  47
1303  48
1304  39
1305  44
1306  38
1307  51
1308  44
1309  49
1310  28
1311  36
1312  40
1313  54
1314  48
1315  41
1316  34
1317  44
1318  40
1319  37
1320  46
1321  56
1322  44
1323  30
1324  38
1325  42
1326  45
1327  46
1328  44
1329  48
1330  32
1331  43
1332  38
1333  53
1334  52
1335  35
1336  46
1337  41
1338  44
1339  43
1340  41
1341  48
1342  57
1343  55
1344  50
1345  39
1346  38
1347  38
1348  50
1349  51
1350  40
1351  43
1352  46
1353  35
1354  36
1355  37
1356  43
1357  41
1358  41
1359  46
1360  50
1361  48
1362  36
1363  42
1364  48
1365  38
1366  46
1367  56
1368  46
1369  45
1370  47
1371  43
1372  47
1373  50
1374  41
1375  44
1376  38
1377  42
1378  48
1379  33
1380  41
1381  50
1382  41
1383  45
1384  41
1385  57
1386  51
1387  52
1388  46
1389  49
1390  43
1391  40
1392  48
1393  48
1394  50
1395  43
1396  49
1397  48
1398  48
1399  40
1400  48
1401  47
1402  58
1403  42
1404  44
1405  46
1406  47
1407  45
1408  57
1409  49
1410  43
1411  47
1412  55
1413  59
1414  54
1415  55
1416  50
1417  48
1418  47
1419  50
1420  38
1421  37
1422  52
1423  34
1424  48
1425  42
1426  44
1427  54
1428  40
1429  53
1430  42
1431  55
1432  36
1433  50
1434  64
1435  52
1436  41
1437  54
1438  59
1439  62
1440  47
1441  49
1442  53
1443  59
1444  49
1445  46
1446  44
1447  48
1448  50
1449  59
1450  52
1451  40
1452  47
1453  48
1454  38
1455  48
1456  58
1457  54
1458  52
1459  50
1460  49
1461  56
1462  57
1463  51
1464  48
1465  44
1466  48
1467  53
1468  57
1469  52
1470  54
1471  57
1472  51
1473  50
1474  63
1475  45
1476  41
1477  43
1478  57
1479  48
1480  52
1481  57
1482  43
1483  65
1484  50
1485  48
1486  69
1487  48
1488  71
1489  43
1490  64
1491  54
1492  60
1493  44
1494  56
1495  46
1496  39
1497  52
1498  52
1499  55
1500  45
1501  50
1502  59
1503  59
1504  51
1505  56
1506  59
1507  53
1508  58
1509  59
1510  58
1511  64
1512  54
1513  52
1514  61
1515  51
1516  49
1517  51
1518  52
1519  60
1520  57
1521  63
1522  53
1523  59
1524  49
1525  62
1526  59
1527  66
1528  49
1529  60
1530  64
1531  69
1532  60
1533  51
1534  43
1535  76
1536  55
1537  72
1538  62
1539  58
1540  65
1541  56
1542  50
1543  50
1544  51
1545  58
1546  70
1547  72
1548  68
1549  54
1550  70
1551  49
1552  65
1553  52
1554  51
1555  76
1556  60
1557  82
1558  53
1559  62
1560  59
1561  58
1562  55
1563  69
1564  66
1565  61
1566  47
1567  71
1568  58
1569  66
1570  73
1571  56
1572  71
1573  72
1574  65
1575  64
1576  58
1577  67
1578  75
1579  57
1580  66
1581  57
1582  63
1583  53
1584  68
1585  61
1586  70
1587  77
1588  69
1589  90
1590  96
1591  72
1592  72
1593  79
1594  63
1595  68
1596  70
1597  74
1598  78
1599  67
1600  73
1601  85
1602  82
1603  60
1604  75
1605  75
1606  94
1607  82
1608  87
1609  74
1610  80
1611  72
1612  77
1613  69
1614  84
1615  89
1616  74
1617  75
1618  61
1619  81
1620  89
1621  89
1622  92
1623  84
1624  97
1625  102
1626  97
1627  88
1628  78
1629  97
1630  89
1631  91
1632  103
1633  93
1634  101
1635  103
1636  97
1637  107
1638  122
1639  123
1640  115
1641  135
1642  148
1643  152
1644  165
1645  179
1646  199
1647  211
1648  238
1649  264
1650  359
1651  400
1652  546
1653  586
1654  727
1655  845
1656  1083
1657  1168
1658  1352
1659  1682
1660  1957
1661  2261
1662  2633
1663  3073
1664  3627
1665  3875
1666  4338
1667  4615
1668  5044
1669  5557
1670  5956
1671  6349
1672  6664
1673  7021
1674  7194
1675  7436
1676  7574
1677  7537
1678  7484
1679  7473
1680  7464
1681  7165
1682  6909
1683  6542
1684  6320
1685  6023
1686  5575
1687  5395
1688  4802
1689  4494
1690  4108
1691  3846
1692  3554
1693  3214
1694  2995
1695  2723
1696  2409
1697  2259
1698  2016
1699  1842
1700  1671
1701  1684
1702  1436
1703  1388
1704  1167
1705  1133
1706  1032
1707  1030
1708  909
1709  903
1710  803
1711  708
1712  698
1713  625
1714  608
1715  557
1716  513
1717  454
1718  421
1719  408
1720  389
1721  379
1722  353
1723  319
1724  282
1725  240
1726  249
1727  239
1728  197
1729  228
1730  189
1731  203
1732  168
1733  172
1734  146
1735  169
1736  153
1737  150
1738  122
1739  133
1740  129
1741  117
1742  117
1743  108
1744  130
1745  111
1746  95
1747  108
1748  94
1749  103
1750  93
1751  75
1752  94
1753  97
1754  81
1755  70
1756  93
1757  106
1758  84
1759  98
1760  90
1761  89
1762  83
1763  104
1764  80
1765  99
1766  95
1767  94
1768  88
1769  94
1770  85
1771  85
1772  98
1773  94
1774  70
1775  100
1776  101
1777  88
1778  89
1779  96
1780  95
1781  95
1782  86
1783  88
1784  84
1785  81
1786  97
1787  88
1788  83
1789  93
1790  87
1791  84
1792  99
1793  72
1794  95
1795  86
1796  86
1797  96
1798  108
1799  100
1800  79
1801  101
1802  80
1803  75
1804  94
1805  94
1806  91
1807  101
1808  91
1809  108
1810  99
1811  77
1812  116
1813  111
1814  97
1815  92
1816  97
1817  94
1818  93
1819  91
1820  97
1821  104
1822  98
1823  98
1824  107
1825  79
1826  96
1827  114
1828  87
1829  87
1830  95
1831  98
1832  100
1833  111
1834  103
1835  102
1836  98
1837  107
1838  116
1839  102
1840  117
1841  91
1842  91
1843  95
1844  95
1845  95
1846  100
1847  112
1848  105
1849  105
1850  86
1851  114
1852  103
1853  104
1854  110
1855  114
1856  107
1857  126
1858  93
1859  94
1860  91
1861  109
1862  95
1863  99
1864  118
1865  110
1866  109
1867  92
1868  105
1869  95
1870  116
1871  100
1872  104
1873  93
1874  95
1875  118
1876  109
1877  111
1878  114
1879  113
1880  102
1881  100
1882  112
1883  121
1884  125
1885  94
1886  92
1887  93
1888  93
1889  108
1890  102
1891  91
1892  111
1893  107
1894  97
1895  95
1896  114
1897  103
1898  100
1899  101
1900  106
1901  107
1902  106
1903  94
1904  107
1905  105
1906  117
1907  112
1908  106
1909  103
1910  104
1911  118
1912  113
1913  113
1914  106
1915  115
1916  128
1917  119
1918  105
1919  124
1920  119
1921  101
1922  114
1923  127
1924  122
1925  118
1926  123
1927  118
1928  133
1929  110
1930  117
1931  113
1932  107
1933  116
1934  110
1935  119
1936  112
1937  117
1938  116
1939  117
1940  118
1941  95
1942  105
1943  139
1944  119
1945  107
1946  119
1947  110
1948  129
1949  110
1950  105
1951  117
1952  147
1953  110
1954  125
1955  107
1956  118
1957  117
1958  118
1959  123
1960  123
1961  110
1962  119
1963  136
1964  110
1965  106
1966  107
1967  102
1968  142
1969  107
1970  104
1971  125
1972  124
1973  108
1974  93
1975  120
1976  124
1977  134
1978  120
1979  112
1980  112
1981  125
1982  104
1983  115
1984  118
1985  127
1986  125
1987  121
1988  128
1989  112
1990  101
1991  100
1992  123
1993  125
1994  120
1995  122
1996  113
1997  132
1998  95
1999  134
2000  111
2001  128
2002  109
2003  127
2004  151
2005  126
2006  120
2007  141
2008  125
2009  118
2010  158
2011  127
2012  145
2013  132
2014  142
2015  119
2016  132
2017  126
2018  121
2019  112
2020  122
2021  149
2022  106
2023  107
2024  132
2025  117
2026  138
2027  133
2028  122
2029  138
2030  120
2031  116
2032  118
2033  124
2034  113
2035  132
2036  116
2037  121
2038  127
2039  123
2040  125
2041  126
2042  110
2043  118
2044  127
2045  121
2046  132
2047  129
2048  117
2049  125
2050  121
2051  115
2052  126
2053  137
2054  133
2055  134
2056  153
2057  99
2058  114
2059  116
2060  134
2061  120
2062  135
2063  150
2064  135
2065  129
2066  135
2067  128
2068  121
2069  126
2070  136
2071  125
2072  126
2073  160
2074  134
2075  134
2076  108
2077  128
2078  128
2079  139
2080  106
2081  131
2082  125
2083  130
2084  134
2085  116
2086  132
2087  138
2088  137
2089  156
2090  124
2091  132
2092  112
2093  143
2094  113
2095  119
2096  144
2097  117
2098  118
2099  129
2100  138
2101  136
2102  107
2103  119
2104  149
2105  120
2106  119
2107  133
2108  120
2109  112
2110  135
2111  123
2112  145
2113  153
2114  144
2115  128
2116  132
2117  148
2118  134
2119  156
2120  127
2121  116
2122  145
2123  127
2124  123
2125  127
2126  129
2127  151
2128  127
2129  139
2130  115
2131  138
2132  139
2133  131
2134  125
2135  131
2136  141
2137  121
2138  129
2139  140
2140  149
2141  120
2142  140
2143  143
2144  143
2145  138
2146  134
2147  124
2148  123
2149  141
2150  149
2151  132
2152  137
2153  157
2154  128
2155  133
2156  135
2157  139
2158  141
2159  133
2160  125
2161  107
2162  163
2163  115
2164  138
2165  116
2166  138
2167  141
2168  142
2169  125
2170  149
2171  157
2172  138
2173  122
2174  137
2175  137
2176  146
2177  137
2178  124
2179  125
2180  138
2181  141
2182  126
2183  128
2184  144
2185  158
2186  147
2187  140
2188  132
2189  160
2190  157
2191  142
2192  160
2193  127
2194  120
2195  130
2196  145
2197  144
2198  142
2199  122
2200  161
2201  140
2202  116
2203  147
2204  160
2205  120
2206  119
2207  155
2208  137
2209  122
2210  126
2211  144
2212  129
2213  137
2214  118
2215  157
2216  138
2217  146
2218  143
2219  154
2220  145
2221  153
2222  154
2223  165
2224  144
2225  146
2226  146
2227  150
2228  142
2229  144
2230  140
2231  126
2232  133
2233  137
2234  120
2235  152
2236  156
2237  140
2238  130
2239  156
2240  133
2241  142
2242  139
2243  133
2244  132
2245  162
2246  150
2247  145
2248  139
2249  149
2250  149
2251  138
2252  141
2253  147
2254  145
2255  133
2256  154
2257  133
2258  148
2259  168
2260  132
2261  141
2262  148
2263  152
2264  147
2265  159
2266  169
2267  147
2268  177
2269  156
2270  151
2271  151
2272  133
2273  144
2274  147
2275  137
2276  144
2277  154
2278  129
2279  134
2280  145
2281  136
2282  170
2283  141
2284  152
2285  149
2286  153
2287  125
2288  143
2289  147
2290  138
2291  141
2292  133
2293  136
2294  125
2295  124
2296  128
2297  141
2298  139
2299  131
2300  155
2301  133
2302  132
2303  148
2304  160
2305  156
2306  131
2307  148
2308  123
2309  147
2310  137
2311  152
2312  129
2313  159
2314  147
2315  160
2316  167
2317  122
2318  140
2319  129
2320  148
2321  148
2322  153
2323  147
2324  138
2325  122
2326  162
2327  151
2328  173
2329  132
2330  149
2331  153
2332  152
2333  129
2334  156
2335  144
2336  138
2337  147
2338  129
2339  175
2340  127
2341  175
2342  149
2343  127
2344  153
2345  132
2346  176
2347  154
2348  154
2349  168
2350  135
2351  180
2352  146
2353  164
2354  160
2355  148
2356  148
2357  130
2358  148
2359  158
2360  163
2361  150
2362  135
2363  150
2364  138
2365  153
2366  136
2367  143
2368  122
2369  154
2370  144
2371  164
2372  154
2373  162
2374  140
2375  146
2376  150
2377  152
2378  156
2379  165
2380  163
2381  145
2382  158
2383  157
2384  158
2385  141
2386  156
2387  144
2388  162
2389  154
2390  134
2391  160
2392  162
2393  163
2394  156
2395  167
2396  128
2397  135
2398  143
2399  181
2400  135
2401  153
2402  161
2403  142
2404  144
2405  156
2406  140
2407  126
2408  150
2409  142
2410  160
2411  144
2412  149
2413  137
2414  141
2415  148
2416  141
2417  144
2418  148
2419  133
2420  155
2421  156
2422  144
2423  152
2424  147
2425  152
2426  151
2427  155
2428  144
2429  156
2430  142
2431  133
2432  149
2433  150
2434  163
2435  151
2436  150
2437  131
2438  145
2439  137
2440  171
2441  142
2442  154
2443  147
2444  156
2445  137
2446  132
2447  193
2448  166
2449  143
2450  129
2451  174
2452  151
2453  160
2454  138
2455  153
2456  155
2457  166
2458  135
2459  144
2460  154
2461  149
2462  152
2463  140
2464  133
2465  163
2466  149
2467  136
2468  170
2469  128
2470  136
2471  131
2472  142
2473  160
2474  153
2475  140
2476  126
2477  170
2478  141
2479  155
2480  136
2481  148
2482  175
2483  149
2484  134
2485  149
2486  133
2487  150
2488  142
2489  155
2490  144
2491  148
2492  152
2493  165
2494  133
2495  142
2496  136
2497  136
2498  140
2499  154
2500  134
2501  167
2502  165
2503  136
2504  150
2505  138
2506  126
2507  120
2508  155
2509  145
2510  144
2511  151
2512  130
2513  142
2514  150
2515  151
2516  127
2517  148
2518  139
2519  145
2520  142
2521  173
2522  159
2523  158
2524  155
2525  133
2526  146
2527  162
2528  133
2529  148
2530  152
2531  139
2532  149
2533  145
2534  122
2535  144
2536  158
2537  167
2538  147
2539  146
2540  153
2541  156
2542  154
2543  136
2544  161
2545  140
2546  141
2547  141
2548  147
2549  137
2550  164
2551  148
2552  158
2553  143
2554  170
2555  128
2556  137
2557  133
2558  139
2559  149
2560  131
2561  135
2562  126
2563  148
2564  146
2565  140
2566  136
2567  142
2568  137
2569  154
2570  125
2571  147
2572  154
2573  147
2574  141
2575  139
2576  134
2577  139
2578  134
2579  134
2580  137
2581  130
2582  148
2583  130
2584  133
2585  145
2586  128
2587  116
2588  131
2589  126
2590  151
2591  140
2592  137
2593  149
2594  137
2595  126
2596  135
2597  136
2598  150
2599  120
2600  123
2601  139
2602  144
2603  125
2604  116
2605  156
2606  130
2607  125
2608  132
2609  121
2610  118
2611  115
2612  133
2613  144
2614  135
2615  124
2616  127
2617  134
2618  130
2619  119
2620  137
2621  151
2622  141
2623  145
2624  145
2625  124
2626  125
2627  108
2628  98
2629  136
2630  119
2631  139
2632  140
2633  128
2634  109
2635  115
2636  139
2637  118
2638  123
2639  114
2640  117
2641  132
2642  109
2643  139
2644  124
2645  149
2646  134
2647  122
2648  133
2649  126
2650  138
2651  132
2652  131
2653  136
2654  135
2655  119
2656  107
2657  127
2658  115
2659  104
2660  136
2661  122
2662  110
2663  117
2664  119
2665  154
2666  116
2667  120
2668  116
2669  110
2670  119
2671  106
2672  127
2673  140
2674  116
2675  113
2676  124
2677  133
2678  121
2679  144
2680  120
2681  122
2682  126
2683  114
2684  129
2685  124
2686  117
2687  130
2688  97
2689  122
2690  115
2691  103
2692  103
2693  110
2694  112
2695  110
2696  116
2697  111
2698  147
2699  121
2700  110
2701  125
2702  125
2703  125
2704  132
2705  121
2706  117
2707  115
2708  131
2709  132
2710  118
2711  122
2712  124
2713  101
2714  113
2715  122
2716  105
2717  112
2718  93
2719  103
2720  126
2721  116
2722  116
2723  105
2724  110
2725  106
2726  109
2727  120
2728  127
2729  123
2730  116
2731  119
2732  106
2733  119
2734  114
2735  87
2736  121
2737  132
2738  99
2739  105
2740  111
2741  110
2742  108
2743  100
2744  98
2745  119
2746  87
2747  116
2748  111
2749  113
2750  104
2751  103
2752  111
2753  94
2754  93
2755  112
2756  102
2757  110
2758  115
2759  102
2760  94
2761  100
2762  92
2763  83
2764  102
2765  111
2766  113
2767  106
2768  107
2769  87
2770  103
2771  91
2772  97
2773  105
2774  105
2775  83
2776  113
2777  79
2778  86
2779  86
2780  95
2781  106
2782  68
2783  88
2784  104
2785  94
2786  91
2787  93
2788  103
2789  86
2790  84
2791  91
2792  101
2793  80
2794  86
2795  101
2796  98
2797  94
2798  97
2799  91
2800  96
2801  96
2802  101
2803  68
2804  90
2805  100
2806  90
2807  81
2808  83
2809  63
2810  75
2811  87
2812  88
2813  82
2814  79
2815  79
2816  61
2817  96
2818  79
2819  67
2820  84
2821  74
2822  86
2823  77
2824  69
2825  80
2826  77
2827  75
2828  71
2829  71
2830  74
2831  63
2832  65
2833  84
2834  71
2835  68
2836  77
2837  74
2838  83
2839  79
2840  68
2841  77
2842  71
2843  70
2844  77
2845  68
2846  62
2847  78
2848  63
2849  75
2850  67
2851  67
2852  66
2853  77
2854  67
2855  63
2856  58
2857  63
2858  84
2859  62
2860  66
2861  64
2862  67
2863  73
2864  54
2865  76
2866  72
2867  64
2868  77
2869  92
2870  73
2871  65
2872  82
2873  75
2874  55
2875  60
2876  42
2877  60
2878  71
2879  66
2880  64
2881  66
2882  62
2883  69
2884  56
2885  64
2886  71
2887  55
2888  65
2889  61
2890  60
2891  57
2892  46
2893  57
2894  60
2895  70
2896  61
2897  58
2898  63
2899  59
2900  75
2901  49
2902  64
2903  58
2904  48
2905  58
2906  60
2907  59
2908  62
2909  56
2910  54
2911  53
2912  55
2913  63
2914  47
2915  66
2916  71
2917  54
2918  45
2919  57
2920  46
2921  71
2922  45
2923  64
2924  47
2925  57
2926  55
2927  61
2928  46
2929  63
2930  52
2931  61
2932  56
2933  68
2934  65
2935  45
2936  63
2937  55
2938  51
2939  54
2940  55
2941  58
2942  53
2943  55
2944  58
2945  59
2946  63
2947  61
2948  61
2949  64
2950  53
2951  61
2952  49
2953  55
2954  63
2955  47
2956  60
2957  52
2958  56
2959  50
2960  58
2961  54
2962  47
2963  43
2964  43
2965  51
2966  50
2967  57
2968  56
2969  59
2970  41
2971  64
2972  59
2973  50
2974  53
2975  47
2976  56
2977  42
2978  61
2979  58
2980  70
2981  61
2982  55
2983  45
2984  46
2985  53
2986  41
2987  45
2988  65
2989  48
2990  56
2991  53
2992  43
2993  47
2994  68
2995  57
2996  60
2997  68
2998  47
2999  52
3000  66
3001  47
3002  53
3003  45
3004  58
3005  50
3006  63
3007  35
3008  44
3009  76
3010  54
3011  53
3012  66
3013  49
3014  51
3015  47
3016  46
3017  49
3018  44
3019  54
3020  55
3021  45
3022  59
3023  49
3024  66
3025  64
3026  34
3027  52
3028  45
3029  63
3030  39
3031  41
3032  36
3033  54
3034  50
3035  58
3036  47
3037  46
3038  43
3039  38
3040  51
3041  49
3042  49
3043  46
3044  38
3045  34
3046  43
3047  55
3048  56
3049  47
3050  52
3051  53
3052  41
3053  48
3054  47
3055  51
3056  49
3057  41
3058  46
3059  63
3060  53
3061  50
3062  45
3063  42
3064  39
3065  40
3066  48
3067  49
3068  36
3069  41
3070  36
3071  47
3072  47
3073  53
3074  44
3075  47
3076  41
3077  42
3078  44
3079  39
3080  47
3081  32
3082  31
3083  40
3084  37
3085  36
3086  35
3087  47
3088  41
3089  42
3090  40
3091  44
3092  50
3093  43
3094  49
3095  53
3096  46
3097  49
3098  36
3099  46
3100  29
3101  36
3102  54
3103  41
3104  42
3105  31
3106  37
3107  41
3108  35
3109  40
3110  33
3111  35
3112  42
3113  39
3114  48
3115  44
3116  54
3117  26
3118  44
3119  40
3120  51
3121  33
3122  45
3123  47
3124  33
3125  37
3126  34
3127  40
3128  35
3129  36
3130  51
3131  40
3132  37
3133  48
3134  33
3135  24
3136  50
3137  30
3138  24
3139  28
3140  40
3141  40
3142  25
3143  40
3144  38
3145  43
3146  35
3147  36
3148  39
3149  42
3150  50
3151  37
3152  39
3153  42
3154  42
3155  36
3156  35
3157  42
3158  33
3159  35
3160  45
3161  54
3162  41
3163  41
3164  42
3165  39
3166  50
3167  54
3168  43
3169  32
3170  36
3171  34
3172  43
3173  36
3174  39
3175  45
3176  52
3177  40
3178  41
3179  44
3180  33
3181  33
3182  32
3183  37
3184  36
3185  38
3186  47
3187  37
3188  33
3189  50
3190  45
3191  47
3192  58
3193  55
3194  35
3195  44
3196  55
3197  44
3198  30
3199  42
3200  47
3201  47
3202  37
3203  33
3204  56
3205  48
3206  47
3207  32
3208  50
3209  43
3210  53
3211  35
3212  44
3213  38
3214  52
3215  51
3216  42
3217  52
3218  47
3219  45
3220  35
3221  49
3222  39
3223  48
3224  41
3225  51
3226  51
3227  44
3228  70
3229  35
3230  35
3231  48
3232  45
3233  48
3234  41
3235  45
3236  56
3237  58
3238  44
3239  48
3240  61
3241  53
3242  48
3243  45
3244  35
3245  49
3246  48
3247  37
3248  45
3249  54
3250  44
3251  51
3252  46
3253  47
3254  42
3255  46
3256  52
3257  42
3258  47
3259  38
3260  45
3261  50
3262  32
3263  45
3264  49
3265  59
3266  44
3267  54
3268  45
3269  47
3270  50
3271  53
3272  46
3273  44
3274  56
3275  47
3276  47
3277  52
3278  40
3279  51
3280  30
3281  46
3282  37
3283  40
3284  52
3285  48
3286  49
3287  59
3288  41
3289  40
3290  53
3291  46
3292  41
3293  42
3294  54
3295  49
3296  46
3297  46
3298  43
3299  51
3300  35
3301  46
3302  48
3303  55
3304  44
3305  50
3306  50
3307  46
3308  31
3309  45
3310  38
3311  45
3312  55
3313  64
3314  65
3315  39
3316  49
3317  56
3318  50
3319  48
3320  53
3321  54
3322  47
3323  55
3324  51
3325  52
3326  41
3327  43
3328  53
3329  45
3330  57
3331  45
3332  49
3333  61
3334  46
3335  46
3336  44
3337  53
3338  39
3339  48
3340  45
3341  60
3342  65
3343  61
3344  52
3345  47
3346  47
3347  47
3348  42
3349  44
3350  45
3351  52
3352  48
3353  42
3354  64
3355  49
3356  54
3357  59
3358  60
3359  54
3360  48
3361  45
3362  51
3363  50
3364  57
3365  49
3366  52
3367  55
3368  44
3369  54
3370  61
3371  58
3372  53
3373  65
3374  58
3375  48
3376  56
3377  55
3378  53
3379  67
3380  51
3381  57
3382  45
3383  56
3384  58
3385  54
3386  63
3387  67
3388  63
3389  63
3390  55
3391  66
3392  56
3393  55
3394  59
3395  66
3396  72
3397  51
3398  47
3399  54
3400  53
3401  76
3402  55
3403  48
3404  61
3405  67
3406  65
3407  70
3408  62
3409  56
3410  60
3411  62
3412  56
3413  55
3414  55
3415  79
3416  48
3417  50
3418  64
3419  56
3420  68
3421  47
3422  76
3423  56
3424  47
3425  56
3426  60
3427  36
3428  52
3429  61
3430  76
3431  52
3432  60
3433  56
3434  62
3435  67
3436  55
3437  56
3438  54
3439  57
3440  74
3441  63
3442  61
3443  76
3444  69
3445  68
3446  66
3447  63
3448  73
3449  80
3450  63
3451  69
3452  67
3453  73
3454  61
3455  59
3456  70
3457  67
3458  66
3459  64
3460  66
3461  67
3462  67
3463  69
3464  63
3465  88
3466  77
3467  65
3468  74
3469  67
3470  66
3471  74
3472  77
3473  75
3474  60
3475  81
3476  71
3477  85
3478  77
3479  72
3480  74
3481  86
3482  83
3483  78
3484  76
3485  83
3486  91
3487  74
3488  85
3489  76
3490  71
3491  62
3492  82
3493  102
3494  78
3495  89
3496  78
3497  85
3498  85
3499  93
3500  82
3501  103
3502  74
3503  78
3504  82
3505  87
3506  88
3507  86
3508  82
3509  99
3510  91
3511  77
3512  103
3513  102
3514  104
3515  100
3516  92
3517  115
3518  106
3519  121
3520  116
3521  107
3522  128
3523  120
3524  116
3525  142
3526  153
3527  186
3528  210
3529  227
3530  271
3531  247
3532  342
3533  445
3534  556
3535  632
3536  757
3537  914
3538  1050
3539  1242
3540  1469
3541  1776
3542  2117
3543  2389
3544  2752
3545  3120
3546  3559
3547  3829
3548  4206
3549  4821
3550  5246
3551  5687
3552  6037
3553  6381
3554  6675
3555  7029
3556  7199
3557  7550
3558  7430
3559  7243
3560  7395
3561  7365
3562  7055
3563  6897
3564  6728
3565  6343
3566  6092
3567  5705
3568  5434
3569  5004
3570  4718
3571  4442
3572  4015
3573  3692
3574  3375
3575  3165
3576  2857
3577  2561
3578  2371
3579  2174
3580  1985
3581  1797
3582  1584
3583  1489
3584  1446
3585  1262
3586  1205
3587  1160
3588  1099
3589  1001
3590  845
3591  845
3592  776
3593  705
3594  708
3595  648
3596  557
3597  555
3598  518
3599  476
3600  464
3601  391
3602  371
3603  389
3604  317
3605  293
3606  312
3607  256
3608  228
3609  237
3610  237
3611  197
3612  217
3613  172
3614  168
3615  181
3616  130
3617  145
3618  131
3619  148
3620  133
3621  138
3622  120
3623  104
3624  123
3625  94
3626  120
3627  99
3628  95
3629  83
3630  86
3631  96
3632  94
3633  99
3634  89
3635  101
3636  88
3637  89
3638  91
3639  98
3640  75
3641  86
3642  100
3643  90
3644  107
3645  103
3646  90
3647  91
3648  85
3649  93
3650  91
3651  90
3652  101
3653  109
3654  92
3655  89
3656  93
3657  79
3658  86
3659  94
3660  101
3661  89
3662  90
3663  95
3664  96
3665  90
3666  94
3667  97
3668  97
3669  105
3670  92
3671  94
3672  84
3673  98
3674  85
3675  83
3676  97
3677  95
3678  110
3679  83
3680  88
3681  96
3682  94
3683  86
3684  99
3685  93
3686  74
3687  81
3688  80
3689  94
3690  76
3691  85
3692  86
3693  70
3694  97
3695  92
3696  78
3697  74
3698  100
3699  104
3700  93
3701  81
3702  93
3703  96
3704  104
3705  86
3706  104
3707  97
3708  111
3709  92
3710  84
3711  116
3712  98
3713  101
3714  93
3715  95
3716  89
3717  100
3718  99
3719  84
3720  93
3721  102
3722  105
3723  112
3724  106
3725  99
3726  111
3727  93
3728  112
3729  92
3730  104
3731  104
3732  85
3733  86
3734  87
3735  108
3736  94
3737  107
3738  89
3739  102
3740  94
3741  105
3742  94
3743  119
3744  91
3745  111
3746  97
3747  104
3748  99
3749  105
3750  106
3751  107
3752  115
3753  99
3754  89
3755  102
3756  92
3757  109
3758  115
3759  122
3760  91
3761  111
3762  106
3763  110
3764  117
3765  112
3766  119
3767  133
3768  106
3769  112
3770  83
3771  130
3772  100
3773  116
3774  105
3775  115
3776  103
3777  106
3778  104
3779  111
3780  137
3781  116
3782  118
3783  94
3784  104
3785  113
3786  105
3787  109
3788  121
3789  93
3790  107
3791  116
3792  109
3793  96
3794  102
3795  116
3796  115
3797  123
3798  127
3799  107
3800  128
3801  93
3802  116
3803  101
3804  112
3805  124
3806  116
3807  122
3808  108
3809  130
3810  114
3811  108
3812  129
3813  112
3814  112
3815  120
3816  124
3817  111
3818  133
3819  129
3820  125
3821  122
3822  104
3823  108
3824  118
3825  112
3826  112
3827  118
3828  128
3829  147
3830  123
3831  127
3832  109
3833  107
3834  127
3835  120
3836  101
3837  116
3838  114
3839  102
3840  0
3841  0
3842  0
3843  0
3844  0
3845  0
3846  0
3847  0
3848  0
3849  0
3850  0
3851  0
3852  0
3853  0
3854  0
3855  0
3856  0
3857  0
3858  0
3859  0
3860  0
3861  0
3862  0
3863  0
3864  0
3865  0
3866  0
3867  0
3868  0
3869  0
3870  0
3871  0
3872  0
3873  0
3874  0
3875  0
3876  0
3877  0
3878  0
3879  0
3880  0
3881  0
3882  0
3883  0
3884  0
3885  0
3886  0
3887  0
3888  0
3889  0
3890  0
3891  0
3892  0
3893  0
3894  0
3895  0
3896  0
3897  0
3898  0
3899  0
3900  0
3901  0
3902  0
3903  0
3904  0
3905  0
3906  0
3907  0
3908  0
3909  0
3910  0
3911  0
3912  0
3913  0
3914  0
3915  0
3916  0
3917  0
3918  0
3919  0
3920  0
3921  0
3922  0
3923  0
3924  0
3925  0
3926  0
3927  0
3928  0
3929  0
3930  0
3931  0
3932  0
3933  0
3934  0
3935  0
3936  0
3937  0
3938  0
3939  0
3940  0
3941  0
3942  0
3943  0
3944  0
3945  0
3946  0
3947  0
3948  0
3949  0
3950  0
3951  0
3952  0
3953  0
3954  0
3955  0
3956  0
3957  0
3958  0
3959  0
3960  0
3961  0
3962  0
3963  0
3964  0
3965  0
3966  0
3967  0
3968  0
3969  0
3970  0
3971  0
3972  0
3973  0
3974  0
3975  0
3976  0
3977  0
3978  0
3979  0
3980  0
3981  0
3982  0
3983  0
3984  0
3985  0
3986  0
3987  0
3988  0
3989  0
3990  0
3991  0
3992  0
3993  0
3994  0
3995  0
3996  0
3997  0
3998  0
3999  0
4000  0
4001  0
4002  0
4003  0
4004  0
4005  0
4006  0
4007  0
4008  0
4009  0
4010  0
4011  0
4012  0
4013  0
4014  0
4015  0
4016  0
4017  0
4018  0
4019  0
4020  0
4021  0
4022  0
4023  0
4024  0
4025  0
4026  0
4027  0
4028  0
4029  0
4030  0
4031  0
4032  0
4033  0
4034  0
4035  0
4036  0
4037  0
4038  0
4039  0
4040  0
4041  0
4042  0
4043  0
4044  0
4045  0
4046  0
4047  0
4048  0
4049  0
4050  0
4051  0
4052  0
4053  0
4054  0
4055  0
4056  0
4057  0
4058  0
4059  0
4060  0
4061  0
4062  0
4063  0
4064  0
4065  0
4066  0
4067  0
4068  0
4069  0
4070  0
4071  0
4072  0
4073  0
4074  0
4075  0
4076  0
4077  0
4078  0
4079  0
4080  0
4081  0
4082  0
4083  0
4084  0
4085  0
4086  0
4087  0
4088  0
4089  0
4090  0
4091  0
4092  0
4093  0
4094  0
4095  0
