0  0
1  0
2  0
3  0
4  0
5  0
6  0
7  0
8  0
9  0
10  0
11  0
12  0
13  0
14  0
15  0
16  0
17  0
18  0
19  0
20  0
21  0
22  0
23  0
24  0
25  0
26  0
27  0
28  0
29  0
30  0
31  0
32  0
33  0
34  0
35  0
36  0
37  0
38  0
39  0
40  0
41  0
42  0
43  0
44  0
45  0
46  0
47  0
48  0
49  0
50  0
51  0
52  0
53  0
54  0
55  0
56  0
57  0
58  0
59  0
60  0
61  0
62  0
63  0
64  0
65  0
66  0
67  0
68  0
69  0
70  0
71  0
72  0
73  0
74  0
75  0
76  0
77  0
78  0
79  0
80  0
81  0
82  0
83  0
84  0
85  0
86  0
87  0
88  0
89  0
90  0
91  0
92  0
93  0
94  0
95  0
96  0
97  0
98  0
99  0
100  0
101  0
102  0
103  0
104  0
105  0
106  0
107  0
108  0
109  0
110  0
111  0
112  0
113  0
114  0
115  0
116  0
117  0
118  0
119  0
120  0
121  0
122  0
123  0
124  0
125  0
126  0
127  0
128  0
129  0
130  0
131  0
132  0
133  0
134  0
135  0
136  0
137  0
138  0
139  0
140  0
141  0
142  0
143  0
144  0
145  0
146  0
147  0
148  0
149  0
150  0
151  0
152  0
153  0
154  0
155  0
156  0
157  0
158  0
159  0
160  0
161  0
162  0
163  0
164  0
165  0
166  0
167  0
168  0
169  0
170  0
171  0
172  0
173  0
174  0
175  0
176  0
177  0
178  0
179  0
180  0
181  0
182  0
183  0
184  0
185  0
186  0
187  0
188  0
189  0
190  0
191  0
192  0
193  0
194  0
195  0
196  0
197  0
198  0
199  0
200  0
201  0
202  0
203  0
204  0
205  0
206  0
207  0
208  0
209  0
210  0
211  0
212  0
213  0
214  0
215  0
216  0
217  0
218  0
219  0
220  0
221  0
222  0
223  0
224  0
225  0
226  0
227  0
228  0
229  0
230  0
231  0
232  0
233  0
234  0
235  0
236  0
237  0
238  0
239  0
240  0
241  0
242  0
243  0
244  0
245  0
246  0
247  0
248  0
249  0
250  0
251  0
252  0
253  0
254  0
255  0
256  0
257  0
258  0
259  0
260  0
261  0
262  0
263  0
264  0
265  0
266  0
267  0
268  0
269  0
270  0
271  0
272  0
273  0
274  0
275  0
276  0
277  0
278  0
279  0
280  0
281  0
282  0
283  0
284  0
285  0
286  0
287  0
288  0
289  0
290  0
291  0
292  0
293  0
294  0
295  0
296  0
297  0
298  0
299  0
300  0
301  0
302  0
303  0
304  0
305  0
306  0
307  0
308  0
309  0
310  0
311  0
312  0
313  0
314  0
315  0
316  0
317  0
318  0
319  0
320  0
321  0
322  0
323  0
324  0
325  0
326  0
327  0
328  0
329  0
330  0
331  0
332  0
333  0
334  0
335  0
336  0
337  0
338  0
339  0
340  0
341  0
342  0
343  0
344  0
345  0
346  0
347  0
348  0
349  0
350  0
351  0
352  0
353  0
354  0
355  0
356  0
357  0
358  0
359  0
360  0
361  0
362  0
363  0
364  0
365  0
366  0
367  0
368  0
369  0
370  0
371  0
372  0
373  0
374  0
375  0
376  0
377  0
378  0
379  0
380  0
381  0
382  0
383  0
384  0
385  0
386  0
387  0
388  0
389  0
390  0
391  0
392  0
393  0
394  0
395  0
396  0
397  0
398  0
399  0
400  0
401  0
402  0
403  0
404  0
405  0
406  0
407  0
408  0
409  0
410  0
411  0
412  0
413  0
414  0
415  0
416  0
417  0
418  0
419  0
420  0
421  0
422  0
423  0
424  0
425  0
426  0
427  0
428  0
429  0
430  0
431  0
432  0
433  0
434  0
435  0
436  0
437  0
438  0
439  0
440  0
441  0
442  0
443  0
444  0
445  0
446  0
447  0
448  0
449  0
450  0
451  0
452  0
453  0
454  0
455  0
456  0
457  0
458  0
459  0
460  0
461  0
462  0
463  0
464  0
465  0
466  0
467  0
468  0
469  0
470  0
471  0
472  0
473  0
474  0
475  0
476  0
477  0
478  0
479  0
480  0
481  0
482  0
483  0
484  0
485  0
486  0
487  0
488  0
489  0
490  0
491  0
492  0
493  0
494  0
495  0
496  0
497  0
498  0
499  0
500  0
501  0
502  0
503  0
504  0
505  0
506  0
507  0
508  0
509  0
510  0
511  0
512  0
513  0
514  0
515  0
516  0
517  0
518  0
519  0
520  0
521  0
522  0
523  0
524  0
525  0
526  0
527  0
528  0
529  0
530  0
531  0
532  0
533  0
534  0
535  0
536  0
537  0
538  0
539  0
540  0
541  0
542  0
543  0
544  0
545  0
546  0
547  0
548  0
549  0
550  0
551  0
552  0
553  0
554  0
555  0
556  0
557  0
558  0
559  0
560  0
561  0
562  0
563  0
564  0
565  0
566  0
567  0
568  0
569  0
570  0
571  0
572  0
573  0
574  0
575  0
576  0
577  0
578  0
579  0
580  0
581  0
582  0
583  0
584  0
585  0
586  0
587  0
588  0
589  0
590  0
591  0
592  0
593  0
594  0
595  0
596  0
597  0
598  0
599  0
600  0
601  0
602  0
603  0
604  0
605  0
606  0
607  0
608  0
609  0
610  0
611  0
612  0
613  0
614  0
615  0
616  0
617  0
618  0
619  0
620  0
621  0
622  0
623  0
624  0
625  0
626  0
627  0
628  0
629  0
630  0
631  0
632  0
633  0
634  0
635  0
636  0
637  0
638  0
639  0
640  0
641  0
642  0
643  0
644  0
645  0
646  0
647  0
648  0
649  0
650  0
651  0
652  0
653  0
654  0
655  0
656  0
657  0
658  0
659  0
660  0
661  0
662  0
663  0
664  0
665  0
666  0
667  0
668  0
669  0
670  0
671  0
672  0
673  0
674  0
675  0
676  0
677  0
678  0
679  0
680  0
681  0
682  0
683  0
684  0
685  0
686  0
687  0
688  0
689  0
690  0
691  0
692  0
693  0
694  0
695  0
696  0
697  0
698  0
699  0
700  0
701  0
702  0
703  0
704  0
705  0
706  0
707  0
708  0
709  0
710  0
711  0
712  0
713  0
714  0
715  0
716  0
717  0
718  0
719  0
720  0
721  0
722  0
723  0
724  0
725  0
726  0
727  0
728  0
729  0
730  0
731  0
732  0
733  0
734  0
735  0
736  0
737  0
738  0
739  0
740  0
741  0
742  0
743  0
744  0
745  0
746  0
747  0
748  0
749  0
750  0
751  0
752  0
753  0
754  0
755  0
756  0
757  0
758  0
759  0
760  0
761  0
762  0
763  0
764  0
765  0
766  0
767  0
768  0
769  0
770  0
771  0
772  0
773  0
774  0
775  0
776  0
777  0
778  0
779  0
780  0
781  0
782  0
783  0
784  0
785  0
786  0
787  0
788  0
789  0
790  0
791  0
792  0
793  0
794  0
795  0
796  0
797  0
798  0
799  0
800  0
801  0
802  0
803  0
804  0
805  0
806  0
807  0
808  0
809  0
810  0
811  0
812  0
813  0
814  0
815  0
816  0
817  0
818  0
819  0
820  0
821  0
822  0
823  0
824  0
825  0
826  0
827  0
828  0
829  0
830  0
831  0
832  0
833  0
834  0
835  0
836  0
837  0
838  0
839  0
840  0
841  0
842  0
843  0
844  0
845  0
846  0
847  0
848  0
849  0
850  0
851  0
852  0
853  0
854  0
855  0
856  0
857  0
858  0
859  0
860  0
861  0
862  0
863  0
864  0
865  0
866  0
867  0
868  0
869  0
870  0
871  0
872  0
873  0
874  0
875  0
876  0
877  0
878  0
879  0
880  0
881  0
882  0
883  0
884  0
885  0
886  0
887  0
888  0
889  0
890  0
891  0
892  0
893  0
894  0
895  0
896  0
897  0
898  0
899  0
900  0
901  0
902  0
903  0
904  0
905  0
906  0
907  0
908  0
909  0
910  0
911  0
912  0
913  0
914  0
915  0
916  0
917  0
918  0
919  0
920  0
921  0
922  0
923  0
924  0
925  0
926  0
927  0
928  0
929  0
930  0
931  0
932  0
933  0
934  0
935  0
936  0
937  0
938  0
939  0
940  0
941  0
942  0
943  0
944  0
945  0
946  0
947  0
948  0
949  0
950  0
951  0
952  0
953  0
954  0
955  0
956  0
957  0
958  0
959  0
960  0
961  0
962  0
963  0
964  0
965  0
966  0
967  0
968  0
969  0
970  0
971  0
972  0
973  0
974  0
975  0
976  0
977  0
978  0
979  0
980  0
981  0
982  0
983  0
984  0
985  0
986  0
987  0
988  0
989  0
990  0
991  0
992  0
993  0
994  0
995  0
996  0
997  0
998  0
999  0
1000  0
1001  0
1002  0
1003  0
1004  0
1005  0
1006  0
1007  0
1008  0
1009  0
1010  0
1011  0
1012  0
1013  0
1014  0
1015  0
1016  0
1017  0
1018  0
1019  0
1020  0
1021  0
1022  0
1023  0
1024  0
1025  0
1026  0
1027  0
1028  0
1029  0
1030  0
1031  0
1032  0
1033  0
1034  0
1035  0
1036  0
1037  0
1038  0
1039  0
1040  0
1041  0
1042  0
1043  0
1044  0
1045  0
1046  0
1047  0
1048  0
1049  0
1050  0
1051  0
1052  0
1053  0
1054  0
1055  0
1056  0
1057  0
1058  0
1059  0
1060  0
1061  0
1062  0
1063  0
1064  0
1065  0
1066  0
1067  0
1068  0
1069  0
1070  0
1071  0
1072  0
1073  0
1074  0
1075  0
1076  0
1077  0
1078  0
1079  0
1080  0
1081  0
1082  0
1083  0
1084  0
1085  0
1086  0
1087  0
1088  0
1089  0
1090  0
1091  0
1092  0
1093  0
1094  0
1095  0
1096  0
1097  0
1098  0
1099  0
1100  0
1101  0
1102  0
1103  0
1104  0
1105  0
1106  0
1107  0
1108  0
1109  0
1110  0
1111  0
1112  0
1113  0
1114  0
1115  0
1116  0
1117  0
1118  0
1119  0
1120  0
1121  0
1122  0
1123  0
1124  0
1125  0
1126  0
1127  0
1128  0
1129  0
1130  0
1131  0
1132  0
1133  0
1134  0
1135  0
1136  0
1137  0
1138  0
1139  0
1140  0
1141  0
1142  0
1143  0
1144  0
1145  0
1146  0
1147  0
1148  0
1149  0
1150  0
1151  0
1152  0
1153  0
1154  0
1155  0
1156  0
1157  0
1158  0
1159  0
1160  0
1161  0
1162  0
1163  0
1164  0
1165  0
1166  0
1167  0
1168  0
1169  0
1170  0
1171  0
1172  0
1173  0
1174  0
1175  0
1176  0
1177  0
1178  0
1179  0
1180  0
1181  0
1182  0
1183  0
1184  0
1185  0
1186  0
1187  0
1188  0
1189  0
1190  0
1191  0
1192  0
1193  0
1194  0
1195  0
1196  0
1197  0
1198  0
1199  0
1200  0
1201  0
1202  0
1203  0
1204  0
1205  0
1206  0
1207  0
1208  0
1209  0
1210  0
1211  0
1212  0
1213  0
1214  0
1215  0
1216  0
1217  0
1218  0
1219  0
1220  0
1221  0
1222  0
1223  0
1224  0
1225  0
1226  0
1227  0
1228  0
1229  0
1230  0
1231  0
1232  0
1233  0
1234  0
1235  0
1236  0
1237  0
1238  0
1239  0
1240  0
1241  0
1242  0
1243  0
1244  0
1245  0
1246  0
1247  0
1248  0
1249  0
1250  0
1251  0
1252  0
1253  0
1254  0
1255  0
1256  0
1257  0
1258  0
1259  0
1260  0
1261  0
1262  0
1263  0
1264  0
1265  0
1266  0
1267  0
1268  0
1269  0
1270  0
1271  0
1272  0
1273  0
1274  0
1275  0
1276  0
1277  0
1278  0
1279  0
1280  0
1281  0
1282  0
1283  0
1284  0
1285  0
1286  0
1287  0
1288  0
1289  0
1290  0
1291  0
1292  0
1293  0
1294  0
1295  0
1296  0
1297  0
1298  0
1299  0
1300  0
1301  0
1302  0
1303  0
1304  0
1305  0
1306  0
1307  0
1308  0
1309  0
1310  0
1311  0
1312  0
1313  0
1314  0
1315  0
1316  0
1317  0
1318  0
1319  0
1320  0
1321  0
1322  0
1323  0
1324  0
1325  0
1326  0
1327  0
1328  0
1329  0
1330  0
1331  0
1332  0
1333  0
1334  0
1335  0
1336  0
1337  0
1338  0
1339  0
1340  0
1341  0
1342  0
1343  0
1344  0
1345  0
1346  0
1347  0
1348  0
1349  0
1350  0
1351  0
1352  0
1353  0
1354  0
1355  0
1356  0
1357  0
1358  0
1359  0
1360  0
1361  0
1362  0
1363  0
1364  0
1365  0
1366  0
1367  0
1368  0
1369  0
1370  0
1371  0
1372  0
1373  0
1374  0
1375  0
1376  0
1377  0
1378  0
1379  0
1380  0
1381  0
1382  0
1383  0
1384  0
1385  0
1386  0
1387  0
1388  0
1389  0
1390  0
1391  0
1392  0
1393  0
1394  0
1395  0
1396  0
1397  0
1398  0
1399  0
1400  0
1401  0
1402  0
1403  0
1404  0
1405  0
1406  0
1407  0
1408  0
1409  0
1410  0
1411  0
1412  0
1413  0
1414  0
1415  0
1416  0
1417  0
1418  0
1419  0
1420  0
1421  0
1422  0
1423  0
1424  0
1425  0
1426  0
1427  0
1428  0
1429  0
1430  0
1431  0
1432  0
1433  0
1434  0
1435  0
1436  0
1437  0
1438  0
1439  0
1440  0
1441  0
1442  0
1443  0
1444  0
1445  0
1446  0
1447  0
1448  0
1449  0
1450  0
1451  0
1452  0
1453  0
1454  0
1455  0
1456  0
1457  0
1458  0
1459  0
1460  0
1461  0
1462  0
1463  0
1464  0
1465  0
1466  0
1467  0
1468  0
1469  0
1470  0
1471  0
1472  0
1473  0
1474  0
1475  0
1476  0
1477  0
1478  0
1479  0
1480  0
1481  0
1482  0
1483  0
1484  0
1485  0
1486  0
1487  0
1488  0
1489  0
1490  0
1491  0
1492  0
1493  0
1494  0
1495  0
1496  0
1497  0
1498  0
1499  0
1500  0
1501  0
1502  0
1503  0
1504  0
1505  0
1506  0
1507  0
1508  0
1509  0
1510  0
1511  0
1512  0
1513  0
1514  0
1515  0
1516  0
1517  0
1518  0
1519  0
1520  0
1521  0
1522  0
1523  0
1524  0
1525  0
1526  0
1527  0
1528  0
1529  0
1530  0
1531  0
1532  0
1533  0
1534  0
1535  0
1536  0
1537  0
1538  0
1539  0
1540  0
1541  0
1542  0
1543  0
1544  0
1545  0
1546  0
1547  0
1548  0
1549  0
1550  0
1551  0
1552  0
1553  0
1554  0
1555  0
1556  0
1557  0
1558  0
1559  0
1560  0
1561  0
1562  0
1563  0
1564  0
1565  0
1566  0
1567  0
1568  0
1569  0
1570  0
1571  0
1572  0
1573  0
1574  0
1575  0
1576  0
1577  0
1578  0
1579  0
1580  0
1581  0
1582  0
1583  0
1584  0
1585  0
1586  0
1587  0
1588  0
1589  0
1590  0
1591  0
1592  0
1593  0
1594  0
1595  2
1596  6
1597  10
1598  62
1599  194
1600  705
1601  2393
1602  7179
1603  17631
1604  30548
1605  41230
1606  46571
1607  48899
1608  49132
1609  49215
1610  49053
1611  48624
1612  48583
1613  48590
1614  48401
1615  47774
1616  46776
1617  46815
1618  45969
1619  45016
1620  44234
1621  43717
1622  43077
1623  42465
1624  41890
1625  41576
1626  40343
1627  39505
1628  38505
1629  37700
1630  36470
1631  35467
1632  34826
1633  33855
1634  33272
1635  31925
1636  30691
1637  29711
1638  28922
1639  27947
1640  27017
1641  26060
1642  25139
1643  24333
1644  23100
1645  22208
1646  21679
1647  20758
1648  19832
1649  19091
1650  18211
1651  17618
1652  16884
1653  16308
1654  15795
1655  14925
1656  14527
1657  13864
1658  13249
1659  12535
1660  12247
1661  11670
1662  11187
1663  10762
1664  10362
1665  9887
1666  9622
1667  9064
1668  8616
1669  8243
1670  8125
1671  7593
1672  7280
1673  7218
1674  6895
1675  6563
1676  6318
1677  6294
1678  5932
1679  5696
1680  5434
1681  5270
1682  5069
1683  4828
1684  4747
1685  4593
1686  4400
1687  4229
1688  4208
1689  3954
1690  3802
1691  3632
1692  3565
1693  3436
1694  3320
1695  3181
1696  3095
1697  3008
1698  2896
1699  2829
1700  2805
1701  2753
1702  2610
1703  2477
1704  2508
1705  2406
1706  2387
1707  2306
1708  2323
1709  2206
1710  2102
1711  2058
1712  2001
1713  2002
1714  1972
1715  1804
1716  1876
1717  1779
1718  1676
1719  1703
1720  1607
1721  1682
1722  1628
1723  1580
1724  1529
1725  1469
1726  1453
1727  1419
1728  1450
1729  1284
1730  1411
1731  1337
1732  1267
1733  1290
1734  1320
1735  1211
1736  1258
1737  1257
1738  1159
1739  1166
1740  1096
1741  1108
1742  1128
1743  1060
1744  1047
1745  1072
1746  1020
1747  967
1748  1046
1749  1028
1750  1022
1751  940
1752  996
1753  979
1754  902
1755  908
1756  937
1757  936
1758  923
1759  954
1760  904
1761  885
1762  834
1763  974
1764  897
1765  892
1766  823
1767  890
1768  856
1769  857
1770  913
1771  872
1772  828
1773  850
1774  797
1775  883
1776  881
1777  821
1778  839
1779  836
1780  834
1781  881
1782  835
1783  839
1784  847
1785  878
1786  824
1787  858
1788  899
1789  879
1790  879
1791  857
1792  852
1793  885
1794  898
1795  886
1796  869
1797  852
1798  874
1799  896
1800  893
1801  910
1802  1000
1803  978
1804  1002
1805  958
1806  976
1807  944
1808  984
1809  1018
1810  975
1811  1004
1812  1077
1813  1028
1814  1024
1815  1086
1816  1080
1817  1081
1818  1084
1819  1139
1820  1133
1821  1156
1822  1279
1823  1218
1824  1127
1825  1238
1826  1239
1827  1254
1828  1254
1829  1301
1830  1315
1831  1276
1832  1338
1833  1377
1834  1339
1835  1403
1836  1457
1837  1385
1838  1513
1839  1480
1840  1521
1841  1489
1842  1506
1843  1634
1844  1626
1845  1666
1846  1629
1847  1635
1848  1712
1849  1721
1850  1754
1851  1762
1852  1738
1853  1844
1854  1898
1855  1892
1856  1811
1857  1823
1858  1925
1859  1979
1860  1995
1861  2004
1862  2023
1863  2019
1864  2024
1865  2072
1866  2100
1867  2201
1868  2117
1869  2155
1870  2216
1871  2180
1872  2270
1873  2247
1874  2273
1875  2340
1876  2273
1877  2326
1878  2392
1879  2436
1880  2341
1881  2457
1882  2446
1883  2523
1884  2409
1885  2565
1886  2468
1887  2539
1888  2516
1889  2545
1890  2708
1891  2634
1892  2630
1893  2584
1894  2845
1895  2765
1896  2819
1897  2791
1898  2815
1899  2853
1900  2774
1901  2910
1902  2934
1903  2938
1904  3039
1905  2932
1906  2941
1907  3072
1908  2948
1909  2984
1910  3015
1911  3048
1912  3141
1913  3139
1914  3018
1915  3076
1916  3156
1917  3137
1918  3133
1919  3260
1920  3115
1921  3317
1922  3315
1923  3358
1924  3404
1925  3285
1926  3371
1927  3393
1928  3349
1929  3433
1930  3456
1931  3425
1932  3392
1933  3469
1934  3509
1935  3389
1936  3513
1937  3491
1938  3396
1939  3545
1940  3555
1941  3452
1942  3501
1943  3599
1944  3531
1945  3506
1946  3654
1947  3578
1948  3611
1949  3623
1950  3560
1951  3575
1952  3635
1953  3653
1954  3682
1955  3719
1956  3721
1957  3724
1958  3553
1959  3603
1960  3557
1961  3732
1962  3662
1963  3658
1964  3685
1965  3659
1966  3695
1967  3608
1968  3583
1969  3680
1970  3670
1971  3615
1972  3734
1973  3797
1974  3666
1975  3687
1976  3742
1977  3711
1978  3646
1979  3799
1980  3681
1981  3623
1982  3668
1983  3743
1984  3604
1985  3722
1986  3579
1987  3618
1988  3629
1989  3701
1990  3600
1991  3542
1992  3608
1993  3566
1994  3582
1995  3524
1996  3550
1997  3638
1998  3522
1999  3558
2000  3560
2001  3460
2002  3565
2003  3555
2004  3578
2005  3488
2006  3560
2007  3543
2008  3525
2009  3487
2010  3542
2011  3479
2012  3459
2013  3428
2014  3500
2015  3544
2016  3417
2017  3417
2018  3380
2019  3449
2020  3430
2021  3393
2022  3409
2023  3476
2024  3364
2025  3406
2026  3417
2027  3405
2028  3296
2029  3330
2030  3310
2031  3307
2032  3298
2033  3270
2034  3319
2035  3296
2036  3269
2037  3278
2038  3238
2039  3177
2040  3202
2041  3161
2042  3149
2043  3090
2044  3107
2045  3192
2046  3137
2047  3038
2048  3028
2049  3096
2050  3110
2051  3080
2052  3025
2053  2977
2054  2936
2055  2938
2056  2945
2057  2920
2058  2977
2059  3005
2060  2840
2061  2791
2062  2861
2063  2853
2064  2795
2065  2844
2066  2841
2067  2817
2068  2853
2069  2887
2070  2729
2071  2823
2072  2809
2073  2720
2074  2769
2075  2700
2076  2696
2077  2760
2078  2698
2079  2716
2080  2714
2081  2738
2082  2595
2083  2664
2084  2635
2085  2614
2086  2626
2087  2420
2088  2456
2089  2607
2090  2580
2091  2604
2092  2480
2093  2486
2094  2487
2095  2500
2096  2418
2097  2486
2098  2324
2099  2402
2100  2404
2101  2271
2102  2437
2103  2393
2104  2336
2105  2347
2106  2493
2107  2306
2108  2274
2109  2337
2110  2296
2111  2219
2112  2268
2113  2221
2114  2316
2115  2214
2116  2170
2117  2277
2118  2110
2119  2145
2120  2150
2121  2144
2122  2171
2123  2072
2124  2040
2125  2114
2126  2109
2127  1983
2128  2002
2129  2053
2130  2057
2131  2034
2132  2033
2133  2028
2134  2040
2135  2005
2136  2030
2137  2067
2138  1876
2139  1956
2140  1954
2141  1951
2142  1977
2143  1904
2144  1944
2145  1922
2146  1891
2147  1809
2148  1904
2149  1831
2150  1877
2151  1842
2152  1857
2153  1799
2154  1811
2155  1793
2156  1800
2157  1821
2158  1769
2159  1844
2160  1761
2161  1773
2162  1680
2163  1743
2164  1700
2165  1732
2166  1734
2167  1650
2168  1683
2169  1613
2170  1675
2171  1601
2172  1688
2173  1652
2174  1685
2175  1654
2176  1560
2177  1576
2178  1643
2179  1574
2180  1580
2181  1535
2182  1486
2183  1634
2184  1585
2185  1499
2186  1544
2187  1517
2188  1545
2189  1459
2190  1500
2191  1477
2192  1431
2193  1478
2194  1429
2195  1474
2196  1418
2197  1385
2198  1463
2199  1396
2200  1365
2201  1339
2202  1396
2203  1380
2204  1381
2205  1352
2206  1296
2207  1304
2208  1347
2209  1354
2210  1291
2211  1250
2212  1312
2213  1261
2214  1267
2215  1277
2216  1301
2217  1258
2218  1311
2219  1187
2220  1260
2221  1179
2222  1213
2223  1186
2224  1206
2225  1158
2226  1202
2227  1221
2228  1162
2229  1133
2230  1180
2231  1131
2232  1152
2233  1081
2234  1171
2235  1099
2236  1149
2237  1028
2238  1114
2239  1059
2240  1058
2241  1093
2242  1086
2243  1101
2244  1088
2245  1000
2246  1020
2247  1038
2248  1022
2249  973
2250  1053
2251  967
2252  989
2253  1009
2254  978
2255  977
2256  997
2257  919
2258  986
2259  968
2260  957
2261  996
2262  929
2263  927
2264  919
2265  885
2266  918
2267  878
2268  897
2269  955
2270  842
2271  926
2272  858
2273  866
2274  839
2275  852
2276  886
2277  847
2278  832
2279  864
2280  862
2281  826
2282  825
2283  799
2284  805
2285  834
2286  778
2287  763
2288  754
2289  800
2290  825
2291  788
2292  735
2293  768
2294  760
2295  788
2296  799
2297  738
2298  744
2299  713
2300  758
2301  778
2302  752
2303  756
2304  750
2305  747
2306  725
2307  702
2308  659
2309  681
2310  688
2311  785
2312  720
2313  681
2314  700
2315  735
2316  704
2317  673
2318  706
2319  713
2320  643
2321  652
2322  643
2323  700
2324  608
2325  610
2326  667
2327  620
2328  663
2329  632
2330  604
2331  654
2332  680
2333  608
2334  635
2335  632
2336  600
2337  599
2338  590
2339  587
2340  618
2341  599
2342  574
2343  619
2344  563
2345  553
2346  589
2347  547
2348  581
2349  590
2350  585
2351  543
2352  574
2353  577
2354  564
2355  546
2356  539
2357  566
2358  562
2359  543
2360  519
2361  533
2362  489
2363  498
2364  518
2365  514
2366  544
2367  491
2368  477
2369  499
2370  487
2371  500
2372  478
2373  447
2374  479
2375  519
2376  456
2377  538
2378  465
2379  497
2380  499
2381  464
2382  526
2383  479
2384  465
2385  477
2386  483
2387  435
2388  443
2389  459
2390  442
2391  438
2392  416
2393  450
2394  456
2395  426
2396  436
2397  429
2398  412
2399  436
2400  435
2401  415
2402  462
2403  432
2404  412
2405  417
2406  409
2407  415
2408  410
2409  420
2410  407
2411  442
2412  382
2413  404
2414  372
2415  408
2416  389
2417  402
2418  384
2419  403
2420  366
2421  416
2422  372
2423  383
2424  362
2425  370
2426  372
2427  383
2428  357
2429  379
2430  347
2431  390
2432  381
2433  374
2434  354
2435  361
2436  364
2437  375
2438  364
2439  372
2440  339
2441  360
2442  365
2443  386
2444  359
2445  352
2446  361
2447  354
2448  353
2449  331
2450  353
2451  337
2452  343
2453  341
2454  321
2455  344
2456  330
2457  322
2458  358
2459  304
2460  337
2461  327
2462  319
2463  342
2464  328
2465  339
2466  333
2467  320
2468  306
2469  285
2470  309
2471  293
2472  307
2473  282
2474  304
2475  307
2476  291
2477  285
2478  307
2479  302
2480  284
2481  273
2482  295
2483  293
2484  309
2485  284
2486  305
2487  314
2488  288
2489  260
2490  275
2491  274
2492  275
2493  267
2494  293
2495  261
2496  256
2497  257
2498  266
2499  243
2500  285
2501  262
2502  248
2503  245
2504  265
2505  261
2506  254
2507  264
2508  255
2509  241
2510  213
2511  275
2512  290
2513  249
2514  234
2515  227
2516  238
2517  276
2518  232
2519  237
2520  250
2521  219
2522  242
2523  202
2524  215
2525  220
2526  241
2527  210
2528  229
2529  219
2530  209
2531  216
2532  211
2533  221
2534  204
2535  192
2536  215
2537  192
2538  218
2539  212
2540  209
2541  223
2542  214
2543  189
2544  180
2545  211
2546  196
2547  213
2548  192
2549  191
2550  178
2551  183
2552  184
2553  219
2554  195
2555  200
2556  195
2557  183
2558  181
2559  199
2560  180
2561  162
2562  184
2563  175
2564  172
2565  172
2566  185
2567  180
2568  185
2569  164
2570  187
2571  178
2572  186
2573  156
2574  184
2575  183
2576  158
2577  182
2578  168
2579  156
2580  178
2581  156
2582  179
2583  154
2584  163
2585  174
2586  173
2587  180
2588  164
2589  162
2590  155
2591  159
2592  144
2593  150
2594  165
2595  148
2596  157
2597  158
2598  131
2599  147
2600  151
2601  145
2602  133
2603  159
2604  121
2605  148
2606  148
2607  164
2608  139
2609  162
2610  126
2611  148
2612  138
2613  151
2614  157
2615  151
2616  142
2617  143
2618  145
2619  140
2620  151
2621  119
2622  145
2623  130
2624  127
2625  126
2626  131
2627  147
2628  164
2629  130
2630  148
2631  159
2632  133
2633  110
2634  121
2635  125
2636  115
2637  122
2638  120
2639  125
2640  130
2641  144
2642  119
2643  123
2644  131
2645  132
2646  153
2647  123
2648  151
2649  116
2650  122
2651  113
2652  115
2653  117
2654  100
2655  129
2656  140
2657  114
2658  107
2659  149
2660  116
2661  90
2662  116
2663  111
2664  115
2665  116
2666  138
2667  116
2668  107
2669  92
2670  113
2671  108
2672  114
2673  105
2674  117
2675  87
2676  102
2677  114
2678  94
2679  112
2680  105
2681  108
2682  96
2683  109
2684  92
2685  102
2686  119
2687  125
2688  103
2689  112
2690  76
2691  119
2692  110
2693  104
2694  101
2695  97
2696  105
2697  93
2698  108
2699  106
2700  96
2701  91
2702  109
2703  107
2704  112
2705  88
2706  108
2707  95
2708  82
2709  99
2710  101
2711  86
2712  95
2713  117
2714  84
2715  110
2716  118
2717  72
2718  102
2719  107
2720  102
2721  101
2722  101
2723  101
2724  105
2725  89
2726  98
2727  79
2728  112
2729  88
2730  96
2731  104
2732  100
2733  67
2734  105
2735  87
2736  87
2737  88
2738  78
2739  82
2740  90
2741  76
2742  78
2743  88
2744  99
2745  113
2746  81
2747  89
2748  83
2749  97
2750  86
2751  90
2752  69
2753  89
2754  85
2755  87
2756  97
2757  88
2758  83
2759  100
2760  88
2761  74
2762  78
2763  67
2764  80
2765  76
2766  87
2767  84
2768  96
2769  84
2770  72
2771  80
2772  74
2773  75
2774  63
2775  78
2776  71
2777  89
2778  83
2779  73
2780  78
2781  62
2782  76
2783  81
2784  78
2785  91
2786  86
2787  79
2788  72
2789  66
2790  66
2791  80
2792  67
2793  73
2794  66
2795  72
2796  68
2797  74
2798  61
2799  62
2800  81
2801  70
2802  71
2803  69
2804  74
2805  74
2806  64
2807  71
2808  68
2809  74
2810  71
2811  73
2812  64
2813  63
2814  78
2815  70
2816  72
2817  68
2818  65
2819  82
2820  70
2821  59
2822  58
2823  75
2824  63
2825  58
2826  82
2827  79
2828  64
2829  49
2830  62
2831  66
2832  48
2833  67
2834  59
2835  80
2836  61
2837  68
2838  69
2839  56
2840  70
2841  60
2842  58
2843  71
2844  80
2845  53
2846  61
2847  58
2848  65
2849  59
2850  71
2851  57
2852  70
2853  63
2854  70
2855  62
2856  58
2857  60
2858  50
2859  64
2860  52
2861  63
2862  61
2863  61
2864  70
2865  65
2866  59
2867  63
2868  53
2869  64
2870  50
2871  60
2872  67
2873  46
2874  62
2875  67
2876  59
2877  51
2878  56
2879  67
2880  54
2881  63
2882  65
2883  64
2884  62
2885  55
2886  52
2887  50
2888  56
2889  50
2890  58
2891  65
2892  45
2893  63
2894  55
2895  52
2896  62
2897  53
2898  61
2899  58
2900  62
2901  66
2902  56
2903  52
2904  57
2905  44
2906  41
2907  61
2908  57
2909  67
2910  68
2911  53
2912  60
2913  48
2914  59
2915  58
2916  52
2917  56
2918  50
2919  59
2920  49
2921  56
2922  47
2923  51
2924  51
2925  44
2926  48
2927  55
2928  58
2929  38
2930  53
2931  72
2932  40
2933  57
2934  56
2935  48
2936  57
2937  53
2938  42
2939  54
2940  52
2941  47
2942  37
2943  44
2944  45
2945  59
2946  45
2947  55
2948  48
2949  57
2950  52
2951  49
2952  51
2953  45
2954  50
2955  39
2956  60
2957  43
2958  45
2959  42
2960  38
2961  44
2962  39
2963  56
2964  41
2965  50
2966  51
2967  34
2968  59
2969  59
2970  60
2971  42
2972  41
2973  48
2974  47
2975  36
2976  51
2977  58
2978  35
2979  45
2980  43
2981  48
2982  34
2983  40
2984  50
2985  46
2986  46
2987  45
2988  44
2989  49
2990  42
2991  50
2992  49
2993  37
2994  34
2995  58
2996  49
2997  55
2998  40
2999  45
3000  40
3001  51
3002  46
3003  39
3004  42
3005  53
3006  48
3007  46
3008  44
3009  51
3010  39
3011  29
3012  41
3013  43
3014  45
3015  41
3016  39
3017  41
3018  43
3019  50
3020  41
3021  36
3022  53
3023  42
3024  43
3025  40
3026  39
3027  35
3028  32
3029  48
3030  37
3031  44
3032  45
3033  38
3034  35
3035  37
3036  42
3037  36
3038  50
3039  44
3040  43
3041  46
3042  29
3043  42
3044  39
3045  38
3046  47
3047  39
3048  32
3049  42
3050  56
3051  37
3052  43
3053  39
3054  44
3055  33
3056  35
3057  32
3058  28
3059  33
3060  34
3061  51
3062  33
3063  34
3064  46
3065  46
3066  43
3067  39
3068  40
3069  43
3070  46
3071  36
3072  38
3073  43
3074  44
3075  36
3076  35
3077  35
3078  28
3079  31
3080  37
3081  33
3082  50
3083  42
3084  34
3085  30
3086  29
3087  33
3088  37
3089  44
3090  37
3091  30
3092  32
3093  49
3094  37
3095  24
3096  38
3097  30
3098  29
3099  26
3100  40
3101  32
3102  40
3103  41
3104  40
3105  38
3106  35
3107  38
3108  37
3109  37
3110  36
3111  36
3112  33
3113  35
3114  35
3115  38
3116  35
3117  51
3118  38
3119  39
3120  35
3121  30
3122  44
3123  39
3124  33
3125  35
3126  32
3127  34
3128  34
3129  31
3130  33
3131  27
3132  38
3133  30
3134  36
3135  35
3136  38
3137  28
3138  31
3139  31
3140  27
3141  38
3142  27
3143  28
3144  26
3145  21
3146  23
3147  34
3148  30
3149  39
3150  21
3151  31
3152  24
3153  41
3154  33
3155  30
3156  36
3157  30
3158  27
3159  36
3160  44
3161  34
3162  26
3163  31
3164  35
3165  27
3166  19
3167  31
3168  31
3169  40
3170  29
3171  31
3172  26
3173  35
3174  33
3175  29
3176  29
3177  26
3178  27
3179  24
3180  30
3181  26
3182  36
3183  31
3184  32
3185  32
3186  30
3187  27
3188  32
3189  33
3190  32
3191  32
3192  31
3193  31
3194  30
3195  29
3196  40
3197  33
3198  37
3199  31
3200  39
3201  31
3202  31
3203  25
3204  29
3205  42
3206  23
3207  35
3208  35
3209  35
3210  27
3211  26
3212  36
3213  29
3214  30
3215  31
3216  32
3217  28
3218  30
3219  32
3220  24
3221  32
3222  31
3223  27
3224  31
3225  28
3226  36
3227  22
3228  26
3229  31
3230  29
3231  25
3232  32
3233  28
3234  35
3235  31
3236  28
3237  29
3238  31
3239  27
3240  27
3241  28
3242  36
3243  31
3244  24
3245  27
3246  35
3247  28
3248  25
3249  34
3250  24
3251  29
3252  27
3253  27
3254  30
3255  33
3256  31
3257  33
3258  26
3259  22
3260  27
3261  31
3262  23
3263  26
3264  23
3265  31
3266  31
3267  21
3268  25
3269  32
3270  29
3271  26
3272  30
3273  25
3274  27
3275  19
3276  19
3277  33
3278  34
3279  29
3280  28
3281  24
3282  32
3283  26
3284  22
3285  29
3286  22
3287  24
3288  31
3289  19
3290  21
3291  30
3292  18
3293  15
3294  25
3295  25
3296  36
3297  26
3298  19
3299  31
3300  27
3301  23
3302  25
3303  23
3304  27
3305  20
3306  26
3307  29
3308  25
3309  21
3310  36
3311  26
3312  25
3313  29
3314  19
3315  23
3316  24
3317  15
3318  25
3319  39
3320  28
3321  19
3322  25
3323  36
3324  40
3325  31
3326  32
3327  23
3328  23
3329  21
3330  25
3331  23
3332  29
3333  24
3334  28
3335  20
3336  24
3337  24
3338  38
3339  22
3340  18
3341  32
3342  22
3343  26
3344  30
3345  25
3346  35
3347  29
3348  27
3349  22
3350  26
3351  36
3352  27
3353  16
3354  25
3355  26
3356  26
3357  25
3358  23
3359  24
3360  28
3361  27
3362  28
3363  24
3364  25
3365  27
3366  24
3367  26
3368  27
3369  27
3370  21
3371  25
3372  26
3373  22
3374  25
3375  17
3376  28
3377  22
3378  21
3379  24
3380  26
3381  23
3382  26
3383  25
3384  24
3385  26
3386  17
3387  24
3388  33
3389  18
3390  39
3391  20
3392  24
3393  25
3394  20
3395  28
3396  25
3397  24
3398  33
3399  20
3400  25
3401  28
3402  31
3403  27
3404  28
3405  25
3406  24
3407  20
3408  22
3409  22
3410  22
3411  25
3412  27
3413  26
3414  28
3415  30
3416  22
3417  15
3418  22
3419  26
3420  27
3421  25
3422  26
3423  15
3424  27
3425  24
3426  28
3427  23
3428  27
3429  20
3430  20
3431  25
3432  19
3433  36
3434  25
3435  26
3436  27
3437  25
3438  23
3439  25
3440  24
3441  20
3442  20
3443  23
3444  25
3445  29
3446  19
3447  26
3448  24
3449  19
3450  22
3451  21
3452  26
3453  24
3454  21
3455  24
3456  23
3457  25
3458  22
3459  30
3460  14
3461  26
3462  16
3463  36
3464  25
3465  23
3466  22
3467  18
3468  27
3469  23
3470  22
3471  21
3472  18
3473  19
3474  23
3475  22
3476  27
3477  15
3478  20
3479  17
3480  24
3481  25
3482  22
3483  21
3484  23
3485  20
3486  14
3487  21
3488  21
3489  18
3490  26
3491  17
3492  22
3493  28
3494  21
3495  32
3496  25
3497  22
3498  26
3499  27
3500  16
3501  27
3502  16
3503  21
3504  25
3505  19
3506  24
3507  26
3508  19
3509  34
3510  19
3511  20
3512  16
3513  28
3514  14
3515  28
3516  23
3517  22
3518  16
3519  26
3520  31
3521  25
3522  16
3523  21
3524  25
3525  19
3526  24
3527  21
3528  20
3529  27
3530  19
3531  21
3532  21
3533  26
3534  20
3535  28
3536  28
3537  31
3538  18
3539  23
3540  20
3541  26
3542  18
3543  18
3544  23
3545  20
3546  15
3547  21
3548  27
3549  26
3550  20
3551  24
3552  15
3553  19
3554  17
3555  27
3556  27
3557  21
3558  19
3559  20
3560  18
3561  18
3562  29
3563  21
3564  29
3565  20
3566  28
3567  16
3568  17
3569  29
3570  22
3571  26
3572  27
3573  28
3574  21
3575  31
3576  19
3577  20
3578  18
3579  26
3580  15
3581  27
3582  19
3583  19
3584  28
3585  17
3586  18
3587  32
3588  21
3589  15
3590  14
3591  20
3592  25
3593  24
3594  22
3595  17
3596  26
3597  31
3598  23
3599  22
3600  15
3601  21
3602  26
3603  27
3604  17
3605  22
3606  17
3607  19
3608  25
3609  23
3610  17
3611  28
3612  22
3613  22
3614  20
3615  27
3616  23
3617  24
3618  26
3619  16
3620  23
3621  27
3622  17
3623  27
3624  27
3625  24
3626  24
3627  20
3628  22
3629  22
3630  23
3631  24
3632  19
3633  24
3634  25
3635  25
3636  23
3637  22
3638  24
3639  27
3640  22
3641  17
3642  23
3643  19
3644  24
3645  12
3646  18
3647  23
3648  19
3649  18
3650  25
3651  25
3652  17
3653  20
3654  16
3655  14
3656  23
3657  20
3658  22
3659  20
3660  22
3661  28
3662  20
3663  23
3664  19
3665  29
3666  15
3667  13
3668  27
3669  19
3670  26
3671  16
3672  21
3673  16
3674  22
3675  16
3676  21
3677  18
3678  19
3679  14
3680  23
3681  23
3682  23
3683  16
3684  24
3685  32
3686  21
3687  21
3688  30
3689  25
3690  31
3691  21
3692  21
3693  25
3694  15
3695  19
3696  24
3697  23
3698  21
3699  27
3700  19
3701  18
3702  21
3703  20
3704  23
3705  18
3706  23
3707  25
3708  16
3709  21
3710  28
3711  27
3712  19
3713  24
3714  20
3715  23
3716  25
3717  23
3718  23
3719  29
3720  12
3721  13
3722  20
3723  23
3724  22
3725  15
3726  23
3727  30
3728  11
3729  20
3730  29
3731  22
3732  23
3733  19
3734  20
3735  18
3736  24
3737  19
3738  18
3739  24
3740  34
3741  16
3742  20
3743  20
3744  27
3745  21
3746  23
3747  22
3748  16
3749  20
3750  17
3751  21
3752  24
3753  19
3754  18
3755  10
3756  20
3757  13
3758  16
3759  13
3760  13
3761  21
3762  21
3763  21
3764  17
3765  20
3766  18
3767  20
3768  19
3769  19
3770  14
3771  24
3772  12
3773  16
3774  22
3775  22
3776  16
3777  16
3778  18
3779  19
3780  25
3781  27
3782  19
3783  21
3784  23
3785  12
3786  25
3787  22
3788  20
3789  12
3790  23
3791  23
3792  19
3793  16
3794  22
3795  20
3796  18
3797  32
3798  35
3799  26
3800  15
3801  17
3802  18
3803  18
3804  18
3805  22
3806  23
3807  18
3808  19
3809  18
3810  16
3811  23
3812  19
3813  15
3814  22
3815  21
3816  21
3817  20
3818  16
3819  15
3820  19
3821  26
3822  26
3823  17
3824  26
3825  23
3826  22
3827  17
3828  20
3829  31
3830  20
3831  14
3832  16
3833  18
3834  12
3835  19
3836  17
3837  15
3838  26
3839  28
3840  0
3841  0
3842  0
3843  0
3844  0
3845  0
3846  0
3847  0
3848  0
3849  0
3850  0
3851  0
3852  0
3853  0
3854  0
3855  0
3856  0
3857  0
3858  0
3859  0
3860  0
3861  0
3862  0
3863  0
3864  0
3865  0
3866  0
3867  0
3868  0
3869  0
3870  0
3871  0
3872  0
3873  0
3874  0
3875  0
3876  0
3877  0
3878  0
3879  0
3880  0
3881  0
3882  0
3883  0
3884  0
3885  0
3886  0
3887  0
3888  0
3889  0
3890  0
3891  0
3892  0
3893  0
3894  0
3895  0
3896  0
3897  0
3898  0
3899  0
3900  0
3901  0
3902  0
3903  0
3904  0
3905  0
3906  0
3907  0
3908  0
3909  0
3910  0
3911  0
3912  0
3913  0
3914  0
3915  0
3916  0
3917  0
3918  0
3919  0
3920  0
3921  0
3922  0
3923  0
3924  0
3925  0
3926  0
3927  0
3928  0
3929  0
3930  0
3931  0
3932  0
3933  0
3934  0
3935  0
3936  0
3937  0
3938  0
3939  0
3940  0
3941  0
3942  0
3943  0
3944  0
3945  0
3946  0
3947  0
3948  0
3949  0
3950  0
3951  0
3952  0
3953  0
3954  0
3955  0
3956  0
3957  0
3958  0
3959  0
3960  0
3961  0
3962  0
3963  0
3964  0
3965  0
3966  0
3967  0
3968  0
3969  0
3970  0
3971  0
3972  0
3973  0
3974  0
3975  0
3976  0
3977  0
3978  0
3979  0
3980  0
3981  0
3982  0
3983  0
3984  0
3985  0
3986  0
3987  0
3988  0
3989  0
3990  0
3991  0
3992  0
3993  0
3994  0
3995  0
3996  0
3997  0
3998  0
3999  0
4000  0
4001  0
4002  0
4003  0
4004  0
4005  0
4006  0
4007  0
4008  0
4009  0
4010  0
4011  0
4012  0
4013  0
4014  0
4015  0
4016  0
4017  0
4018  0
4019  0
4020  0
4021  0
4022  0
4023  0
4024  0
4025  0
4026  0
4027  0
4028  0
4029  0
4030  0
4031  0
4032  0
4033  0
4034  0
4035  0
4036  0
4037  0
4038  0
4039  0
4040  0
4041  0
4042  0
4043  0
4044  0
4045  0
4046  0
4047  0
4048  0
4049  0
4050  0
4051  0
4052  0
4053  0
4054  0
4055  0
4056  0
4057  0
4058  0
4059  0
4060  0
4061  0
4062  0
4063  0
4064  0
4065  0
4066  0
4067  0
4068  0
4069  0
4070  0
4071  0
4072  0
4073  0
4074  0
4075  0
4076  0
4077  0
4078  0
4079  0
4080  0
4081  0
4082  0
4083  0
4084  0
4085  0
4086  0
4087  0
4088  0
4089  0
4090  0
4091  0
4092  0
4093  0
4094  0
4095  0
