0  0
1  11
2  13
3  14
4  14
5  16
6  15
7  20
8  14
9  18
10  11
11  12
12  10
13  13
14  12
15  14
16  13
17  15
18  19
19  15
20  17
21  22
22  16
23  21
24  17
25  19
26  17
27  21
28  11
29  19
30  23
31  21
32  20
33  23
34  32
35  33
36  15
37  19
38  23
39  21
40  29
41  24
42  32
43  23
44  24
45  22
46  40
47  41
48  35
49  36
50  28
51  29
52  40
53  34
54  22
55  42
56  33
57  31
58  33
59  44
60  35
61  29
62  43
63  29
64  35
65  39
66  32
67  32
68  38
69  37
70  53
71  55
72  48
73  33
74  47
75  38
76  54
77  48
78  48
79  37
80  43
81  48
82  44
83  51
84  56
85  55
86  54
87  54
88  61
89  46
90  61
91  72
92  64
93  60
94  60
95  70
96  58
97  55
98  74
99  69
100  63
101  84
102  76
103  76
104  77
105  89
106  63
107  70
108  77
109  96
110  80
111  81
112  89
113  91
114  87
115  111
116  97
117  106
118  96
119  85
120  84
121  120
122  95
123  107
124  108
125  120
126  128
127  132
128  149
129  137
130  128
131  140
132  120
133  135
134  155
135  158
136  159
137  192
138  182
139  186
140  153
141  209
142  200
143  229
144  203
145  208
146  236
147  245
148  291
149  288
150  325
151  293
152  358
153  368
154  413
155  419
156  434
157  504
158  513
159  574
160  650
161  810
162  927
163  1150
164  1530
165  1927
166  2595
167  3230
168  4121
169  4949
170  5727
171  6267
172  7043
173  7685
174  8091
175  8401
176  8605
177  8491
178  8543
179  8448
180  8457
181  8635
182  8540
183  8330
184  8424
185  8335
186  8239
187  8243
188  8108
189  8123
190  8409
191  8563
192  8816
193  8940
194  9439
195  9684
196  9607
197  9867
198  10097
199  10109
200  9947
201  9979
202  10044
203  10049
204  9952
205  9751
206  9683
207  9687
208  9571
209  9675
210  9551
211  9351
212  9343
213  9062
214  9099
215  8923
216  8920
217  8926
218  8790
219  8860
220  8867
221  8604
222  8518
223  8522
224  8374
225  8407
226  8194
227  8167
228  8130
229  7888
230  7983
231  7864
232  7850
233  7800
234  7853
235  7665
236  7686
237  7692
238  7548
239  7449
240  7413
241  7488
242  7506
243  7517
244  7360
245  7227
246  7240
247  7308
248  7143
249  7008
250  6932
251  6972
252  6837
253  6833
254  6632
255  6822
256  6619
257  6502
258  6504
259  6602
260  6522
261  6590
262  6267
263  6285
264  6297
265  6302
266  6327
267  6342
268  6155
269  6216
270  6129
271  6453
272  6379
273  6302
274  6494
275  6399
276  6578
277  6662
278  6607
279  6799
280  6809
281  7036
282  7044
283  6786
284  6908
285  6899
286  7084
287  6919
288  7011
289  6922
290  6989
291  6892
292  6947
293  6931
294  6764
295  6866
296  6829
297  6901
298  6798
299  6613
300  6518
301  6622
302  6543
303  6627
304  6511
305  6498
306  6473
307  6406
308  6455
309  6493
310  6476
311  6315
312  6539
313  6362
314  6380
315  6277
316  6363
317  6447
318  6391
319  6494
320  6398
321  6462
322  6418
323  6392
324  6354
325  6321
326  6414
327  6337
328  6484
329  6453
330  6556
331  6487
332  6714
333  6494
334  6514
335  6365
336  6444
337  6689
338  6579
339  6563
340  6552
341  6633
342  6555
343  6540
344  6463
345  6466
346  6518
347  6451
348  6494
349  6253
350  6326
351  6293
352  6185
353  6341
354  6281
355  6298
356  6376
357  6230
358  6186
359  6111
360  6151
361  6321
362  6082
363  6181
364  6254
365  6331
366  6116
367  6098
368  6022
369  5996
370  6006
371  6046
372  5991
373  6076
374  5961
375  5923
376  5983
377  5915
378  5881
379  5830
380  5869
381  5860
382  5655
383  5867
384  5851
385  5782
386  5663
387  5771
388  5747
389  5712
390  5586
391  5700
392  5635
393  5617
394  5440
395  5488
396  5489
397  5510
398  5505
399  5496
400  5353
401  5420
402  5339
403  5446
404  5422
405  5251
406  5326
407  5310
408  5166
409  5063
410  5160
411  5161
412  5071
413  5142
414  5101
415  4944
416  5038
417  5128
418  4952
419  4871
420  4963
421  4838
422  4881
423  4918
424  4906
425  4838
426  4788
427  4811
428  4671
429  4813
430  4715
431  4668
432  4712
433  4707
434  4693
435  4555
436  4678
437  4529
438  4544
439  4413
440  4538
441  4438
442  4375
443  4500
444  4564
445  4442
446  4502
447  4318
448  4444
449  4352
450  4373
451  4305
452  4214
453  4344
454  4233
455  4341
456  4336
457  4212
458  4209
459  4148
460  4185
461  4047
462  4152
463  4206
464  4147
465  4069
466  4095
467  4128
468  4030
469  4110
470  4065
471  4037
472  3986
473  3964
474  4044
475  3953
476  4027
477  3914
478  3875
479  3965
480  3834
481  4048
482  3756
483  3956
484  3727
485  3997
486  3871
487  3796
488  3951
489  3628
490  3950
491  3861
492  3868
493  3803
494  3797
495  3818
496  3919
497  3750
498  3807
499  3692
500  3906
501  3761
502  3763
503  3627
504  3670
505  3728
506  3725
507  3710
508  3741
509  3615
510  3700
511  3701
512  3635
513  3694
514  3688
515  3635
516  3703
517  3662
518  3604
519  3631
520  3514
521  3626
522  3450
523  3575
524  3597
525  3598
526  3604
527  3497
528  3564
529  3467
530  3595
531  3485
532  3451
533  3485
534  3457
535  3443
536  3553
537  3374
538  3438
539  3504
540  3464
541  3552
542  3441
543  3392
544  3388
545  3497
546  3508
547  3358
548  3428
549  3389
550  3482
551  3312
552  3401
553  3378
554  3388
555  3408
556  3341
557  3344
558  3348
559  3296
560  3230
561  3343
562  3331
563  3393
564  3378
565  3374
566  3428
567  3216
568  3288
569  3355
570  3355
571  3366
572  3341
573  3307
574  3254
575  3329
576  3276
577  3258
578  3304
579  3343
580  3159
581  3356
582  3212
583  3391
584  3261
585  3183
586  3251
587  3297
588  3411
589  3193
590  3308
591  3213
592  3265
593  3229
594  3240
595  3296
596  3204
597  3301
598  3260
599  3239
600  3301
601  3352
602  3279
603  3178
604  3276
605  3300
606  3366
607  3206
608  3258
609  3266
610  3339
611  3330
612  3368
613  3275
614  3257
615  3264
616  3321
617  3294
618  3280
619  3336
620  3303
621  3251
622  3267
623  3222
624  3263
625  3294
626  3310
627  3216
628  3215
629  3360
630  3311
631  3288
632  3286
633  3176
634  3198
635  3271
636  3273
637  3282
638  3256
639  3197
640  3178
641  3199
642  3187
643  3235
644  3178
645  3215
646  3150
647  3038
648  3228
649  3055
650  3178
651  3113
652  3143
653  3071
654  3104
655  3029
656  3165
657  3102
658  3202
659  3064
660  3070
661  2992
662  3083
663  2931
664  2962
665  2957
666  3018
667  2978
668  2929
669  2906
670  2916
671  2875
672  3026
673  2841
674  2859
675  2856
676  2916
677  2782
678  2851
679  2740
680  2799
681  2756
682  2714
683  2671
684  2700
685  2653
686  2690
687  2548
688  2593
689  2643
690  2636
691  2584
692  2580
693  2658
694  2564
695  2485
696  2545
697  2469
698  2551
699  2577
700  2431
701  2430
702  2490
703  2469
704  2349
705  2447
706  2356
707  2350
708  2322
709  2305
710  2248
711  2291
712  2274
713  2295
714  2281
715  2255
716  2105
717  2242
718  2196
719  2145
720  2099
721  2139
722  2114
723  2085
724  2010
725  2050
726  1972
727  1998
728  2016
729  2018
730  1961
731  1940
732  2008
733  1938
734  1922
735  1921
736  1872
737  1913
738  1921
739  1892
740  1819
741  1866
742  1748
743  1832
744  1813
745  1810
746  1727
747  1809
748  1734
749  1685
750  1706
751  1703
752  1594
753  1644
754  1634
755  1566
756  1549
757  1619
758  1630
759  1688
760  1568
761  1589
762  1576
763  1457
764  1559
765  1522
766  1486
767  1495
768  1552
769  1469
770  1504
771  1492
772  1374
773  1516
774  1415
775  1375
776  1331
777  1388
778  1448
779  1402
780  1439
781  1341
782  1367
783  1370
784  1357
785  1387
786  1362
787  1392
788  1325
789  1365
790  1315
791  1338
792  1311
793  1338
794  1303
795  1293
796  1333
797  1330
798  1237
799  1292
800  1303
801  1294
802  1217
803  1243
804  1243
805  1315
806  1214
807  1285
808  1229
809  1234
810  1173
811  1178
812  1170
813  1169
814  1193
815  1091
816  1170
817  1143
818  1201
819  1184
820  1129
821  1187
822  1123
823  1141
824  1231
825  1141
826  1212
827  1191
828  1162
829  1148
830  1172
831  1136
832  1157
833  1194
834  1148
835  1110
836  1170
837  1105
838  1230
839  1087
840  1134
841  1168
842  1117
843  1108
844  1150
845  1180
846  1075
847  1085
848  1142
849  1082
850  1060
851  1117
852  1096
853  1075
854  1107
855  1089
856  1050
857  1073
858  1047
859  1087
860  1040
861  1080
862  1033
863  1033
864  1032
865  1069
866  1098
867  1101
868  1079
869  1056
870  1020
871  992
872  1074
873  1119
874  1008
875  1064
876  998
877  1071
878  1087
879  1046
880  1088
881  1009
882  1024
883  999
884  1023
885  1016
886  987
887  1042
888  1010
889  1023
890  964
891  983
892  1022
893  925
894  1006
895  966
896  980
897  982
898  999
899  998
900  980
901  1013
902  950
903  937
904  1012
905  947
906  1002
907  960
908  936
909  1031
910  942
911  995
912  968
913  944
914  900
915  950
916  1012
917  926
918  932
919  911
920  940
921  937
922  975
923  951
924  911
925  911
926  893
927  954
928  865
929  930
930  956
931  916
932  923
933  926
934  909
935  930
936  912
937  877
938  910
939  964
940  918
941  885
942  884
943  896
944  882
945  912
946  895
947  942
948  904
949  890
950  853
951  912
952  845
953  900
954  893
955  848
956  882
957  885
958  872
959  841
960  901
961  801
962  929
963  825
964  860
965  865
966  855
967  848
968  890
969  780
970  821
971  883
972  883
973  856
974  896
975  897
976  867
977  874
978  842
979  876
980  830
981  838
982  816
983  866
984  842
985  870
986  886
987  821
988  821
989  842
990  806
991  851
992  792
993  844
994  844
995  844
996  822
997  835
998  787
999  820
1000  781
1001  816
1002  822
1003  827
1004  782
1005  836
1006  840
1007  781
1008  794
1009  850
1010  821
1011  788
1012  857
1013  766
1014  780
1015  823
1016  784
1017  771
1018  816
1019  829
1020  793
1021  821
1022  868
1023  824
1024  796
1025  802
1026  822
1027  794
1028  781
1029  800
1030  827
1031  785
1032  823
1033  839
1034  809
1035  808
1036  823
1037  790
1038  861
1039  788
1040  786
1041  732
1042  751
1043  793
1044  827
1045  730
1046  812
1047  758
1048  795
1049  724
1050  762
1051  774
1052  803
1053  791
1054  759
1055  721
1056  837
1057  728
1058  794
1059  783
1060  814
1061  783
1062  778
1063  769
1064  787
1065  756
1066  752
1067  769
1068  760
1069  711
1070  758
1071  747
1072  790
1073  756
1074  779
1075  701
1076  734
1077  749
1078  753
1079  753
1080  734
1081  737
1082  751
1083  714
1084  734
1085  695
1086  714
1087  760
1088  721
1089  757
1090  689
1091  747
1092  763
1093  714
1094  757
1095  734
1096  732
1097  753
1098  727
1099  748
1100  748
1101  718
1102  724
1103  713
1104  727
1105  708
1106  692
1107  698
1108  702
1109  695
1110  687
1111  690
1112  708
1113  683
1114  740
1115  692
1116  735
1117  703
1118  704
1119  743
1120  724
1121  680
1122  715
1123  672
1124  701
1125  654
1126  726
1127  694
1128  695
1129  713
1130  711
1131  745
1132  719
1133  664
1134  665
1135  704
1136  656
1137  670
1138  634
1139  697
1140  674
1141  675
1142  667
1143  676
1144  617
1145  728
1146  694
1147  763
1148  686
1149  725
1150  697
1151  658
1152  694
1153  652
1154  681
1155  634
1156  669
1157  643
1158  639
1159  652
1160  659
1161  636
1162  646
1163  697
1164  681
1165  649
1166  573
1167  615
1168  620
1169  667
1170  645
1171  667
1172  668
1173  612
1174  637
1175  638
1176  601
1177  648
1178  657
1179  641
1180  603
1181  628
1182  648
1183  647
1184  646
1185  596
1186  589
1187  632
1188  642
1189  614
1190  626
1191  653
1192  632
1193  628
1194  613
1195  639
1196  632
1197  605
1198  637
1199  625
1200  676
1201  638
1202  606
1203  619
1204  577
1205  603
1206  629
1207  556
1208  645
1209  609
1210  590
1211  655
1212  584
1213  611
1214  608
1215  578
1216  609
1217  616
1218  592
1219  624
1220  575
1221  604
1222  558
1223  602
1224  580
1225  602
1226  588
1227  587
1228  571
1229  595
1230  601
1231  606
1232  616
1233  598
1234  574
1235  654
1236  563
1237  550
1238  604
1239  556
1240  581
1241  611
1242  599
1243  621
1244  569
1245  585
1246  569
1247  561
1248  585
1249  600
1250  558
1251  543
1252  572
1253  574
1254  574
1255  595
1256  572
1257  551
1258  532
1259  529
1260  530
1261  572
1262  537
1263  580
1264  579
1265  539
1266  589
1267  543
1268  562
1269  555
1270  574
1271  572
1272  549
1273  559
1274  538
1275  546
1276  502
1277  536
1278  515
1279  560
1280  532
1281  605
1282  541
1283  534
1284  558
1285  500
1286  553
1287  552
1288  493
1289  562
1290  526
1291  519
1292  523
1293  568
1294  513
1295  508
1296  545
1297  509
1298  532
1299  500
1300  524
1301  524
1302  470
1303  516
1304  464
1305  519
1306  519
1307  535
1308  508
1309  502
1310  483
1311  524
1312  473
1313  495
1314  506
1315  488
1316  485
1317  482
1318  490
1319  444
1320  470
1321  474
1322  483
1323  473
1324  513
1325  494
1326  499
1327  503
1328  514
1329  497
1330  457
1331  474
1332  488
1333  461
1334  474
1335  517
1336  465
1337  471
1338  467
1339  480
1340  468
1341  477
1342  454
1343  471
1344  477
1345  434
1346  461
1347  424
1348  498
1349  473
1350  466
1351  454
1352  457
1353  429
1354  491
1355  459
1356  473
1357  467
1358  450
1359  454
1360  405
1361  430
1362  423
1363  484
1364  437
1365  450
1366  434
1367  447
1368  418
1369  416
1370  438
1371  413
1372  409
1373  441
1374  397
1375  388
1376  402
1377  423
1378  425
1379  430
1380  437
1381  386
1382  466
1383  395
1384  408
1385  406
1386  399
1387  410
1388  422
1389  409
1390  433
1391  373
1392  398
1393  411
1394  425
1395  436
1396  431
1397  407
1398  373
1399  411
1400  383
1401  378
1402  393
1403  356
1404  393
1405  389
1406  407
1407  370
1408  388
1409  409
1410  379
1411  345
1412  399
1413  396
1414  387
1415  389
1416  375
1417  363
1418  379
1419  352
1420  388
1421  358
1422  407
1423  374
1424  387
1425  360
1426  393
1427  360
1428  392
1429  386
1430  364
1431  381
1432  384
1433  374
1434  349
1435  399
1436  355
1437  365
1438  377
1439  394
1440  341
1441  368
1442  336
1443  370
1444  330
1445  381
1446  377
1447  381
1448  377
1449  382
1450  414
1451  342
1452  377
1453  364
1454  335
1455  380
1456  323
1457  328
1458  325
1459  371
1460  361
1461  362
1462  322
1463  311
1464  325
1465  337
1466  329
1467  339
1468  345
1469  387
1470  332
1471  346
1472  338
1473  363
1474  366
1475  346
1476  324
1477  337
1478  324
1479  347
1480  309
1481  324
1482  395
1483  347
1484  358
1485  337
1486  304
1487  310
1488  317
1489  342
1490  322
1491  339
1492  350
1493  319
1494  331
1495  322
1496  345
1497  339
1498  347
1499  291
1500  338
1501  310
1502  326
1503  308
1504  314
1505  321
1506  341
1507  310
1508  328
1509  300
1510  297
1511  313
1512  311
1513  316
1514  308
1515  375
1516  331
1517  327
1518  307
1519  323
1520  316
1521  324
1522  301
1523  310
1524  293
1525  306
1526  318
1527  305
1528  290
1529  307
1530  301
1531  325
1532  277
1533  293
1534  281
1535  295
1536  313
1537  307
1538  319
1539  293
1540  280
1541  309
1542  307
1543  277
1544  271
1545  310
1546  271
1547  309
1548  300
1549  318
1550  291
1551  287
1552  301
1553  288
1554  289
1555  301
1556  314
1557  291
1558  311
1559  283
1560  295
1561  315
1562  282
1563  277
1564  282
1565  277
1566  299
1567  264
1568  322
1569  308
1570  306
1571  279
1572  298
1573  290
1574  275
1575  294
1576  308
1577  280
1578  314
1579  280
1580  286
1581  289
1582  290
1583  293
1584  297
1585  292
1586  251
1587  253
1588  269
1589  257
1590  235
1591  275
1592  239
1593  267
1594  272
1595  252
1596  287
1597  290
1598  261
1599  282
1600  242
1601  269
1602  263
1603  270
1604  265
1605  267
1606  284
1607  257
1608  257
1609  238
1610  270
1611  242
1612  277
1613  221
1614  249
1615  266
1616  269
1617  248
1618  273
1619  223
1620  256
1621  250
1622  254
1623  252
1624  249
1625  247
1626  234
1627  254
1628  274
1629  245
1630  270
1631  258
1632  236
1633  260
1634  214
1635  260
1636  248
1637  228
1638  246
1639  235
1640  236
1641  234
1642  244
1643  234
1644  216
1645  214
1646  225
1647  236
1648  221
1649  257
1650  249
1651  237
1652  224
1653  256
1654  241
1655  233
1656  238
1657  241
1658  241
1659  233
1660  286
1661  254
1662  238
1663  252
1664  233
1665  249
1666  201
1667  226
1668  219
1669  233
1670  252
1671  218
1672  237
1673  219
1674  225
1675  234
1676  198
1677  207
1678  211
1679  194
1680  211
1681  228
1682  208
1683  218
1684  226
1685  235
1686  222
1687  243
1688  239
1689  236
1690  224
1691  224
1692  203
1693  206
1694  249
1695  216
1696  221
1697  195
1698  207
1699  195
1700  187
1701  199
1702  227
1703  247
1704  211
1705  219
1706  194
1707  213
1708  187
1709  188
1710  195
1711  195
1712  193
1713  192
1714  210
1715  211
1716  197
1717  190
1718  201
1719  205
1720  201
1721  179
1722  178
1723  200
1724  197
1725  185
1726  200
1727  194
1728  198
1729  197
1730  198
1731  202
1732  234
1733  199
1734  198
1735  181
1736  172
1737  185
1738  178
1739  203
1740  181
1741  184
1742  173
1743  200
1744  198
1745  161
1746  179
1747  196
1748  194
1749  199
1750  182
1751  170
1752  186
1753  158
1754  184
1755  168
1756  183
1757  180
1758  194
1759  176
1760  181
1761  179
1762  145
1763  182
1764  183
1765  194
1766  187
1767  163
1768  162
1769  177
1770  183
1771  164
1772  182
1773  151
1774  161
1775  176
1776  163
1777  167
1778  167
1779  164
1780  193
1781  171
1782  194
1783  174
1784  147
1785  198
1786  172
1787  172
1788  138
1789  177
1790  181
1791  173
1792  161
1793  169
1794  171
1795  167
1796  186
1797  178
1798  161
1799  162
1800  166
1801  157
1802  156
1803  160
1804  160
1805  173
1806  162
1807  159
1808  152
1809  171
1810  148
1811  164
1812  157
1813  150
1814  168
1815  150
1816  158
1817  139
1818  154
1819  151
1820  147
1821  137
1822  142
1823  149
1824  161
1825  138
1826  153
1827  151
1828  130
1829  161
1830  149
1831  140
1832  145
1833  135
1834  150
1835  122
1836  127
1837  142
1838  150
1839  135
1840  123
1841  120
1842  146
1843  131
1844  141
1845  138
1846  138
1847  137
1848  114
1849  135
1850  162
1851  154
1852  139
1853  140
1854  142
1855  145
1856  134
1857  135
1858  143
1859  125
1860  145
1861  136
1862  119
1863  112
1864  121
1865  143
1866  153
1867  132
1868  136
1869  152
1870  140
1871  152
1872  132
1873  130
1874  137
1875  159
1876  125
1877  116
1878  149
1879  125
1880  124
1881  137
1882  125
1883  136
1884  125
1885  138
1886  144
1887  116
1888  116
1889  130
1890  107
1891  120
1892  107
1893  119
1894  143
1895  124
1896  122
1897  130
1898  124
1899  119
1900  117
1901  119
1902  116
1903  117
1904  119
1905  106
1906  122
1907  117
1908  116
1909  116
1910  108
1911  109
1912  129
1913  132
1914  116
1915  112
1916  108
1917  143
1918  122
1919  113
1920  102
1921  122
1922  120
1923  120
1924  130
1925  122
1926  110
1927  119
1928  103
1929  100
1930  106
1931  115
1932  102
1933  103
1934  97
1935  100
1936  91
1937  116
1938  101
1939  117
1940  114
1941  110
1942  106
1943  90
1944  92
1945  111
1946  108
1947  110
1948  115
1949  107
1950  100
1951  108
1952  106
1953  112
1954  100
1955  99
1956  111
1957  117
1958  113
1959  93
1960  105
1961  100
1962  128
1963  96
1964  92
1965  84
1966  110
1967  112
1968  110
1969  101
1970  84
1971  89
1972  91
1973  112
1974  101
1975  92
1976  118
1977  106
1978  97
1979  113
1980  96
1981  88
1982  102
1983  80
1984  86
1985  91
1986  104
1987  88
1988  87
1989  88
1990  63
1991  78
1992  99
1993  100
1994  93
1995  83
1996  100
1997  89
1998  75
1999  95
2000  86
2001  100
2002  97
2003  99
2004  113
2005  92
2006  89
2007  102
2008  96
2009  79
2010  72
2011  91
2012  73
2013  96
2014  94
2015  109
2016  86
2017  66
2018  96
2019  86
2020  84
2021  95
2022  98
2023  89
2024  81
2025  76
2026  72
2027  77
2028  88
2029  90
2030  80
2031  77
2032  90
2033  73
2034  93
2035  98
2036  91
2037  87
2038  78
2039  76
2040  67
2041  72
2042  94
2043  75
2044  99
2045  84
2046  92
2047  77
2048  79
2049  90
2050  85
2051  80
2052  91
2053  87
2054  73
2055  82
2056  88
2057  93
2058  73
2059  71
2060  77
2061  83
2062  72
2063  80
2064  71
2065  70
2066  73
2067  71
2068  91
2069  90
2070  89
2071  78
2072  94
2073  84
2074  68
2075  88
2076  68
2077  80
2078  66
2079  76
2080  78
2081  80
2082  87
2083  76
2084  72
2085  71
2086  81
2087  53
2088  78
2089  78
2090  80
2091  82
2092  76
2093  64
2094  79
2095  69
2096  65
2097  68
2098  63
2099  81
2100  61
2101  66
2102  74
2103  71
2104  77
2105  76
2106  75
2107  75
2108  77
2109  75
2110  75
2111  74
2112  61
2113  74
2114  78
2115  52
2116  71
2117  74
2118  67
2119  70
2120  57
2121  79
2122  74
2123  69
2124  66
2125  78
2126  72
2127  68
2128  80
2129  56
2130  79
2131  64
2132  70
2133  65
2134  72
2135  61
2136  72
2137  59
2138  61
2139  68
2140  70
2141  47
2142  56
2143  77
2144  79
2145  84
2146  61
2147  66
2148  53
2149  66
2150  41
2151  60
2152  75
2153  73
2154  57
2155  61
2156  56
2157  66
2158  67
2159  51
2160  67
2161  62
2162  58
2163  57
2164  79
2165  55
2166  60
2167  48
2168  49
2169  60
2170  63
2171  74
2172  65
2173  78
2174  57
2175  63
2176  59
2177  62
2178  57
2179  60
2180  52
2181  60
2182  58
2183  59
2184  57
2185  68
2186  53
2187  52
2188  70
2189  50
2190  50
2191  57
2192  50
2193  54
2194  64
2195  56
2196  60
2197  65
2198  64
2199  53
2200  55
2201  55
2202  43
2203  55
2204  51
2205  57
2206  53
2207  55
2208  60
2209  55
2210  51
2211  44
2212  57
2213  53
2214  62
2215  42
2216  55
2217  59
2218  49
2219  55
2220  57
2221  46
2222  47
2223  52
2224  52
2225  57
2226  51
2227  54
2228  52
2229  71
2230  57
2231  45
2232  44
2233  55
2234  57
2235  56
2236  58
2237  50
2238  54
2239  51
2240  55
2241  48
2242  39
2243  56
2244  54
2245  58
2246  49
2247  58
2248  44
2249  53
2250  42
2251  37
2252  47
2253  58
2254  48
2255  48
2256  44
2257  48
2258  49
2259  31
2260  47
2261  56
2262  55
2263  40
2264  42
2265  45
2266  48
2267  53
2268  35
2269  51
2270  43
2271  56
2272  41
2273  54
2274  47
2275  44
2276  60
2277  43
2278  56
2279  30
2280  44
2281  42
2282  35
2283  47
2284  36
2285  39
2286  44
2287  46
2288  47
2289  49
2290  42
2291  30
2292  38
2293  44
2294  30
2295  38
2296  37
2297  52
2298  37
2299  41
2300  50
2301  48
2302  42
2303  40
2304  35
2305  41
2306  39
2307  34
2308  52
2309  47
2310  49
2311  40
2312  42
2313  32
2314  46
2315  49
2316  41
2317  46
2318  43
2319  39
2320  37
2321  35
2322  24
2323  47
2324  40
2325  32
2326  42
2327  38
2328  35
2329  44
2330  38
2331  36
2332  39
2333  44
2334  47
2335  33
2336  50
2337  26
2338  41
2339  33
2340  35
2341  43
2342  38
2343  31
2344  42
2345  30
2346  50
2347  38
2348  42
2349  39
2350  47
2351  28
2352  35
2353  37
2354  41
2355  28
2356  35
2357  41
2358  31
2359  44
2360  34
2361  39
2362  30
2363  47
2364  44
2365  33
2366  31
2367  31
2368  29
2369  25
2370  48
2371  33
2372  32
2373  45
2374  32
2375  41
2376  36
2377  32
2378  35
2379  33
2380  37
2381  27
2382  34
2383  26
2384  35
2385  33
2386  26
2387  28
2388  39
2389  26
2390  23
2391  44
2392  38
2393  35
2394  33
2395  36
2396  36
2397  29
2398  31
2399  32
2400  37
2401  33
2402  32
2403  45
2404  27
2405  43
2406  31
2407  29
2408  39
2409  29
2410  30
2411  23
2412  35
2413  28
2414  30
2415  25
2416  26
2417  31
2418  30
2419  33
2420  33
2421  22
2422  24
2423  33
2424  26
2425  30
2426  36
2427  42
2428  23
2429  29
2430  19
2431  29
2432  21
2433  24
2434  26
2435  33
2436  16
2437  24
2438  28
2439  31
2440  26
2441  25
2442  19
2443  30
2444  29
2445  33
2446  25
2447  21
2448  17
2449  31
2450  26
2451  21
2452  26
2453  24
2454  24
2455  24
2456  32
2457  25
2458  25
2459  25
2460  26
2461  25
2462  17
2463  23
2464  29
2465  28
2466  42
2467  20
2468  30
2469  24
2470  25
2471  23
2472  26
2473  19
2474  20
2475  20
2476  18
2477  20
2478  25
2479  22
2480  30
2481  38
2482  21
2483  18
2484  14
2485  20
2486  25
2487  22
2488  23
2489  24
2490  18
2491  29
2492  20
2493  23
2494  21
2495  24
2496  25
2497  20
2498  30
2499  21
2500  14
2501  23
2502  21
2503  13
2504  22
2505  27
2506  24
2507  28
2508  29
2509  20
2510  25
2511  21
2512  19
2513  24
2514  21
2515  23
2516  20
2517  30
2518  32
2519  14
2520  21
2521  16
2522  21
2523  19
2524  24
2525  19
2526  22
2527  19
2528  24
2529  26
2530  18
2531  32
2532  25
2533  19
2534  23
2535  22
2536  22
2537  20
2538  20
2539  18
2540  10
2541  20
2542  25
2543  14
2544  10
2545  13
2546  18
2547  29
2548  13
2549  24
2550  19
2551  21
2552  19
2553  18
2554  20
2555  19
2556  14
2557  22
2558  14
2559  13
2560  32
2561  27
2562  13
2563  21
2564  20
2565  19
2566  16
2567  12
2568  17
2569  17
2570  18
2571  19
2572  14
2573  17
2574  12
2575  19
2576  13
2577  19
2578  18
2579  11
2580  10
2581  19
2582  14
2583  9
2584  13
2585  10
2586  11
2587  23
2588  11
2589  17
2590  18
2591  15
2592  19
2593  13
2594  10
2595  22
2596  15
2597  18
2598  13
2599  21
2600  17
2601  20
2602  12
2603  11
2604  9
2605  9
2606  16
2607  17
2608  19
2609  13
2610  19
2611  14
2612  15
2613  21
2614  12
2615  17
2616  9
2617  8
2618  14
2619  10
2620  17
2621  11
2622  10
2623  10
2624  12
2625  15
2626  8
2627  9
2628  14
2629  10
2630  15
2631  17
2632  15
2633  15
2634  12
2635  14
2636  10
2637  18
2638  15
2639  11
2640  11
2641  13
2642  16
2643  14
2644  22
2645  17
2646  12
2647  11
2648  9
2649  16
2650  11
2651  11
2652  13
2653  14
2654  14
2655  12
2656  17
2657  11
2658  5
2659  10
2660  14
2661  5
2662  19
2663  14
2664  15
2665  9
2666  12
2667  12
2668  11
2669  12
2670  8
2671  15
2672  5
2673  4
2674  16
2675  17
2676  11
2677  13
2678  7
2679  12
2680  6
2681  14
2682  13
2683  10
2684  13
2685  12
2686  15
2687  21
2688  16
2689  10
2690  5
2691  15
2692  16
2693  11
2694  14
2695  7
2696  11
2697  9
2698  16
2699  10
2700  10
2701  7
2702  8
2703  9
2704  9
2705  11
2706  11
2707  13
2708  8
2709  13
2710  11
2711  10
2712  6
2713  17
2714  9
2715  11
2716  10
2717  6
2718  6
2719  9
2720  14
2721  11
2722  12
2723  15
2724  13
2725  8
2726  12
2727  8
2728  10
2729  4
2730  8
2731  10
2732  7
2733  10
2734  10
2735  7
2736  9
2737  12
2738  13
2739  11
2740  7
2741  15
2742  7
2743  11
2744  4
2745  4
2746  7
2747  7
2748  13
2749  6
2750  7
2751  9
2752  8
2753  14
2754  10
2755  6
2756  9
2757  12
2758  13
2759  6
2760  15
2761  7
2762  18
2763  11
2764  10
2765  11
2766  8
2767  12
2768  6
2769  9
2770  2
2771  11
2772  7
2773  13
2774  9
2775  9
2776  7
2777  7
2778  4
2779  9
2780  7
2781  9
2782  8
2783  7
2784  7
2785  10
2786  6
2787  9
2788  4
2789  5
2790  6
2791  10
2792  4
2793  8
2794  10
2795  7
2796  16
2797  7
2798  8
2799  7
2800  8
2801  11
2802  5
2803  7
2804  7
2805  8
2806  8
2807  5
2808  8
2809  4
2810  6
2811  8
2812  5
2813  11
2814  10
2815  6
2816  8
2817  5
2818  10
2819  4
2820  14
2821  7
2822  10
2823  7
2824  16
2825  7
2826  9
2827  5
2828  9
2829  9
2830  9
2831  11
2832  11
2833  10
2834  8
2835  3
2836  9
2837  8
2838  5
2839  7
2840  4
2841  9
2842  8
2843  11
2844  9
2845  4
2846  11
2847  3
2848  9
2849  8
2850  2
2851  4
2852  9
2853  14
2854  10
2855  7
2856  6
2857  3
2858  5
2859  9
2860  4
2861  4
2862  6
2863  7
2864  6
2865  9
2866  4
2867  8
2868  4
2869  8
2870  3
2871  6
2872  9
2873  6
2874  7
2875  5
2876  9
2877  3
2878  3
2879  4
2880  8
2881  0
2882  4
2883  5
2884  5
2885  2
2886  3
2887  7
2888  7
2889  5
2890  6
2891  5
2892  9
2893  7
2894  2
2895  7
2896  5
2897  3
2898  6
2899  3
2900  7
2901  5
2902  6
2903  7
2904  3
2905  7
2906  6
2907  6
2908  9
2909  4
2910  4
2911  4
2912  6
2913  5
2914  4
2915  5
2916  8
2917  5
2918  8
2919  6
2920  8
2921  13
2922  5
2923  6
2924  4
2925  4
2926  5
2927  7
2928  5
2929  3
2930  4
2931  5
2932  5
2933  3
2934  3
2935  8
2936  4
2937  7
2938  4
2939  3
2940  8
2941  8
2942  9
2943  7
2944  4
2945  5
2946  2
2947  7
2948  6
2949  10
2950  5
2951  7
2952  3
2953  4
2954  9
2955  3
2956  4
2957  5
2958  4
2959  5
2960  3
2961  10
2962  4
2963  4
2964  5
2965  7
2966  7
2967  3
2968  5
2969  1
2970  6
2971  4
2972  6
2973  6
2974  5
2975  4
2976  5
2977  3
2978  1
2979  7
2980  4
2981  3
2982  7
2983  4
2984  6
2985  4
2986  6
2987  4
2988  4
2989  4
2990  5
2991  1
2992  3
2993  8
2994  4
2995  7
2996  2
2997  2
2998  4
2999  3
3000  2
3001  2
3002  5
3003  2
3004  4
3005  3
3006  3
3007  6
3008  3
3009  6
3010  4
3011  1
3012  7
3013  7
3014  2
3015  3
3016  3
3017  2
3018  6
3019  5
3020  4
3021  7
3022  3
3023  2
3024  5
3025  5
3026  1
3027  9
3028  3
3029  4
3030  8
3031  3
3032  7
3033  6
3034  3
3035  3
3036  1
3037  1
3038  4
3039  4
3040  8
3041  2
3042  2
3043  7
3044  1
3045  3
3046  4
3047  0
3048  1
3049  2
3050  3
3051  1
3052  4
3053  5
3054  5
3055  2
3056  0
3057  5
3058  1
3059  5
3060  3
3061  5
3062  5
3063  4
3064  3
3065  0
3066  5
3067  3
3068  3
3069  0
3070  3
3071  3
3072  1
3073  5
3074  2
3075  3
3076  1
3077  4
3078  3
3079  3
3080  1
3081  10
3082  6
3083  3
3084  3
3085  3
3086  2
3087  2
3088  4
3089  4
3090  4
3091  1
3092  1
3093  2
3094  4
3095  2
3096  4
3097  2
3098  5
3099  6
3100  5
3101  2
3102  5
3103  2
3104  2
3105  1
3106  9
3107  0
3108  7
3109  5
3110  1
3111  5
3112  3
3113  1
3114  2
3115  3
3116  2
3117  5
3118  2
3119  1
3120  3
3121  6
3122  3
3123  1
3124  2
3125  4
3126  5
3127  3
3128  4
3129  0
3130  4
3131  2
3132  4
3133  2
3134  3
3135  3
3136  2
3137  1
3138  1
3139  0
3140  2
3141  1
3142  2
3143  3
3144  2
3145  2
3146  2
3147  2
3148  4
3149  1
3150  1
3151  3
3152  0
3153  1
3154  3
3155  1
3156  3
3157  0
3158  0
3159  1
3160  0
3161  4
3162  3
3163  3
3164  2
3165  0
3166  0
3167  2
3168  2
3169  1
3170  0
3171  2
3172  3
3173  2
3174  2
3175  1
3176  2
3177  2
3178  0
3179  2
3180  1
3181  1
3182  2
3183  1
3184  4
3185  1
3186  1
3187  0
3188  1
3189  3
3190  0
3191  2
3192  3
3193  0
3194  2
3195  2
3196  2
3197  3
3198  1
3199  1
3200  1
3201  2
3202  1
3203  1
3204  0
3205  1
3206  0
3207  2
3208  1
3209  0
3210  2
3211  3
3212  1
3213  4
3214  0
3215  2
3216  0
3217  1
3218  1
3219  0
3220  3
3221  2
3222  3
3223  0
3224  2
3225  1
3226  5
3227  1
3228  1
3229  1
3230  4
3231  3
3232  0
3233  1
3234  0
3235  0
3236  3
3237  2
3238  0
3239  0
3240  1
3241  1
3242  2
3243  2
3244  2
3245  0
3246  1
3247  1
3248  3
3249  2
3250  1
3251  1
3252  2
3253  2
3254  3
3255  2
3256  3
3257  0
3258  2
3259  2
3260  2
3261  3
3262  0
3263  1
3264  2
3265  1
3266  1
3267  2
3268  1
3269  0
3270  1
3271  1
3272  0
3273  1
3274  0
3275  2
3276  1
3277  1
3278  0
3279  0
3280  0
3281  0
3282  0
3283  1
3284  2
3285  1
3286  1
3287  2
3288  1
3289  2
3290  2
3291  1
3292  5
3293  3
3294  0
3295  0
3296  1
3297  1
3298  0
3299  1
3300  0
3301  1
3302  1
3303  2
3304  2
3305  2
3306  0
3307  1
3308  2
3309  1
3310  2
3311  1
3312  3
3313  0
3314  1
3315  3
3316  1
3317  2
3318  1
3319  1
3320  0
3321  0
3322  2
3323  1
3324  3
3325  1
3326  2
3327  0
3328  2
3329  1
3330  0
3331  0
3332  0
3333  2
3334  1
3335  1
3336  2
3337  2
3338  1
3339  0
3340  1
3341  1
3342  2
3343  0
3344  0
3345  1
3346  2
3347  0
3348  0
3349  0
3350  3
3351  0
3352  2
3353  1
3354  0
3355  0
3356  0
3357  1
3358  1
3359  0
3360  0
3361  1
3362  0
3363  2
3364  2
3365  0
3366  1
3367  0
3368  0
3369  1
3370  0
3371  1
3372  1
3373  2
3374  2
3375  0
3376  3
3377  0
3378  0
3379  1
3380  0
3381  0
3382  0
3383  0
3384  1
3385  0
3386  1
3387  0
3388  1
3389  0
3390  3
3391  0
3392  1
3393  0
3394  0
3395  2
3396  0
3397  1
3398  1
3399  2
3400  0
3401  1
3402  0
3403  0
3404  2
3405  0
3406  2
3407  0
3408  1
3409  0
3410  1
3411  0
3412  0
3413  2
3414  1
3415  0
3416  1
3417  0
3418  0
3419  1
3420  0
3421  1
3422  1
3423  0
3424  0
3425  1
3426  0
3427  1
3428  1
3429  1
3430  2
3431  0
3432  0
3433  0
3434  0
3435  1
3436  0
3437  0
3438  1
3439  0
3440  0
3441  2
3442  1
3443  1
3444  0
3445  3
3446  1
3447  0
3448  0
3449  0
3450  0
3451  1
3452  1
3453  2
3454  1
3455  0
3456  0
3457  0
3458  2
3459  1
3460  0
3461  0
3462  1
3463  0
3464  1
3465  1
3466  0
3467  2
3468  0
3469  0
3470  1
3471  1
3472  0
3473  1
3474  2
3475  1
3476  4
3477  1
3478  1
3479  1
3480  1
3481  2
3482  4
3483  1
3484  1
3485  3
3486  1
3487  3
3488  2
3489  3
3490  3
3491  1
3492  2
3493  1
3494  1
3495  6
3496  3
3497  2
3498  0
3499  2
3500  2
3501  2
3502  2
3503  1
3504  4
3505  7
3506  3
3507  2
3508  0
3509  1
3510  1
3511  3
3512  1
3513  1
3514  0
3515  1
3516  1
3517  1
3518  1
3519  1
3520  0
3521  2
3522  1
3523  0
3524  0
3525  1
3526  0
3527  1
3528  0
3529  2
3530  0
3531  0
3532  0
3533  0
3534  0
3535  1
3536  0
3537  0
3538  0
3539  0
3540  0
3541  0
3542  0
3543  0
3544  0
3545  0
3546  0
3547  0
3548  0
3549  0
3550  0
3551  0
3552  0
3553  0
3554  0
3555  0
3556  1
3557  0
3558  0
3559  0
3560  1
3561  0
3562  1
3563  0
3564  0
3565  0
3566  0
3567  0
3568  0
3569  1
3570  1
3571  1
3572  0
3573  0
3574  1
3575  0
3576  0
3577  0
3578  1
3579  0
3580  0
3581  2
3582  1
3583  1
3584  0
3585  0
3586  1
3587  1
3588  3
3589  1
3590  5
3591  1
3592  0
3593  0
3594  0
3595  1
3596  2
3597  2
3598  4
3599  1
3600  0
3601  1
3602  1
3603  0
3604  0
3605  0
3606  0
3607  0
3608  0
3609  0
3610  0
3611  0
3612  0
3613  0
3614  0
3615  0
3616  0
3617  0
3618  0
3619  0
3620  0
3621  0
3622  0
3623  0
3624  0
3625  0
3626  0
3627  0
3628  0
3629  0
3630  0
3631  0
3632  0
3633  0
3634  0
3635  0
3636  0
3637  0
3638  0
3639  0
3640  0
3641  0
3642  0
3643  0
3644  0
3645  0
3646  0
3647  0
3648  0
3649  0
3650  0
3651  0
3652  0
3653  0
3654  0
3655  0
3656  0
3657  0
3658  0
3659  0
3660  0
3661  0
3662  0
3663  0
3664  0
3665  0
3666  0
3667  0
3668  0
3669  0
3670  0
3671  0
3672  0
3673  0
3674  0
3675  0
3676  0
3677  0
3678  0
3679  0
3680  0
3681  0
3682  0
3683  0
3684  0
3685  0
3686  0
3687  0
3688  0
3689  0
3690  0
3691  0
3692  0
3693  0
3694  0
3695  0
3696  0
3697  0
3698  0
3699  0
3700  0
3701  0
3702  0
3703  0
3704  0
3705  0
3706  0
3707  0
3708  0
3709  0
3710  0
3711  0
3712  0
3713  0
3714  0
3715  0
3716  0
3717  0
3718  0
3719  0
3720  0
3721  0
3722  0
3723  0
3724  0
3725  0
3726  0
3727  0
3728  0
3729  0
3730  0
3731  0
3732  0
3733  0
3734  0
3735  0
3736  0
3737  0
3738  0
3739  0
3740  0
3741  0
3742  0
3743  0
3744  0
3745  0
3746  0
3747  0
3748  0
3749  0
3750  0
3751  0
3752  0
3753  0
3754  0
3755  0
3756  0
3757  0
3758  0
3759  0
3760  0
3761  0
3762  0
3763  0
3764  0
3765  0
3766  0
3767  0
3768  0
3769  0
3770  0
3771  0
3772  0
3773  0
3774  0
3775  0
3776  0
3777  0
3778  0
3779  0
3780  0
3781  0
3782  0
3783  0
3784  0
3785  0
3786  0
3787  0
3788  0
3789  0
3790  0
3791  0
3792  0
3793  0
3794  0
3795  0
3796  0
3797  0
3798  0
3799  0
3800  0
3801  0
3802  0
3803  0
3804  0
3805  0
3806  0
3807  0
3808  0
3809  0
3810  0
3811  0
3812  0
3813  0
3814  0
3815  0
3816  0
3817  0
3818  0
3819  0
3820  0
3821  0
3822  0
3823  0
3824  0
3825  0
3826  0
3827  0
3828  0
3829  0
3830  0
3831  0
3832  0
3833  0
3834  0
3835  0
3836  0
3837  0
3838  0
3839  0
3840  0
3841  0
3842  0
3843  0
3844  0
3845  0
3846  0
3847  0
3848  0
3849  0
3850  0
3851  0
3852  0
3853  0
3854  0
3855  0
3856  0
3857  0
3858  0
3859  0
3860  0
3861  0
3862  0
3863  0
3864  0
3865  0
3866  0
3867  0
3868  0
3869  0
3870  0
3871  0
3872  0
3873  0
3874  0
3875  0
3876  0
3877  0
3878  0
3879  0
3880  0
3881  0
3882  0
3883  0
3884  0
3885  0
3886  0
3887  0
3888  0
3889  0
3890  0
3891  0
3892  0
3893  0
3894  0
3895  0
3896  0
3897  0
3898  0
3899  0
3900  0
3901  0
3902  0
3903  0
3904  0
3905  0
3906  0
3907  0
3908  0
3909  0
3910  0
3911  0
3912  0
3913  0
3914  0
3915  0
3916  0
3917  0
3918  0
3919  0
3920  0
3921  0
3922  0
3923  0
3924  0
3925  0
3926  0
3927  0
3928  0
3929  0
3930  0
3931  0
3932  0
3933  0
3934  0
3935  0
3936  0
3937  0
3938  0
3939  0
3940  0
3941  0
3942  0
3943  0
3944  0
3945  0
3946  0
3947  0
3948  0
3949  0
3950  0
3951  0
3952  0
3953  0
3954  0
3955  0
3956  0
3957  0
3958  0
3959  0
3960  0
3961  0
3962  0
3963  0
3964  0
3965  0
3966  0
3967  0
3968  0
3969  0
3970  0
3971  0
3972  0
3973  0
3974  0
3975  0
3976  0
3977  0
3978  0
3979  0
3980  0
3981  0
3982  0
3983  0
3984  0
3985  0
3986  0
3987  0
3988  0
3989  0
3990  0
3991  0
3992  0
3993  0
3994  0
3995  0
3996  0
3997  0
3998  0
3999  0
4000  0
4001  0
4002  0
4003  0
4004  0
4005  0
4006  0
4007  0
4008  0
4009  0
4010  0
4011  0
4012  0
4013  0
4014  0
4015  0
4016  0
4017  0
4018  0
4019  0
4020  0
4021  0
4022  0
4023  0
4024  0
4025  0
4026  0
4027  0
4028  0
4029  0
4030  0
4031  0
4032  0
4033  0
4034  0
4035  0
4036  0
4037  0
4038  0
4039  0
4040  0
4041  0
4042  0
4043  0
4044  0
4045  0
4046  0
4047  0
4048  0
4049  0
4050  0
4051  0
4052  0
4053  0
4054  0
4055  0
4056  0
4057  0
4058  0
4059  0
4060  0
4061  0
4062  0
4063  0
4064  0
4065  0
4066  0
4067  0
4068  0
4069  0
4070  0
4071  0
4072  0
4073  0
4074  0
4075  0
4076  0
4077  0
4078  0
4079  0
4080  0
4081  0
4082  0
4083  0
4084  0
4085  0
4086  0
4087  0
4088  0
4089  0
4090  0
4091  0
4092  0
4093  0
4094  0
4095  0
