0  504
1  564
2  686
3  833
4  944
5  1075
6  1177
7  1285
8  1483
9  1495
10  1640
11  1666
12  1816
13  1864
14  1793
15  1917
16  1871
17  1758
18  1673
19  1584
20  1471
21  1328
22  1195
23  1123
24  921
25  880
26  747
27  631
28  528
29  473
30  332
31  308
32  204
33  164
34  136
35  91
36  76
37  64
38  51
39  25
40  19
41  17
42  10
43  9
44  6
45  5
46  4
47  0
48  0
49  0
50  1
51  0
52  1
53  0
54  0
55  0
56  0
57  0
58  0
59  0
60  0
61  0
62  0
63  0
64  0
65  0
66  0
67  0
68  0
69  0
70  0
71  0
72  0
73  0
74  0
75  0
76  0
77  0
78  0
79  0
80  0
81  0
82  0
83  0
84  0
85  0
86  0
87  0
88  0
89  0
90  0
91  0
92  0
93  0
94  0
95  2
96  0
97  0
98  0
99  0
100  0
101  0
102  0
103  0
104  0
105  0
106  0
107  0
108  0
109  0
110  0
111  0
112  0
113  0
114  0
115  0
116  0
117  0
118  0
119  0
120  0
121  0
122  0
123  0
124  0
125  0
126  0
127  0
128  1
129  0
130  0
131  0
132  0
133  0
134  0
135  0
136  0
137  0
138  0
139  0
140  0
141  0
142  0
143  0
144  0
145  0
146  0
147  0
148  0
149  0
150  0
151  0
152  0
153  0
154  0
155  0
156  0
157  0
158  0
159  0
160  0
161  0
162  0
163  0
164  0
165  0
166  0
167  0
168  0
169  0
170  0
171  1
172  0
173  0
174  0
175  0
176  0
177  0
178  0
179  0
180  0
181  0
182  0
183  0
184  1
185  0
186  0
187  0
188  0
189  0
190  0
191  0
192  0
193  0
194  0
195  0
196  0
197  0
198  1
199  1
200  0
201  1
202  1
203  1
204  5
205  3
206  1
207  5
208  3
209  5
210  11
211  10
212  7
213  9
214  10
215  9
216  7
217  12
218  16
219  12
220  10
221  10
222  18
223  18
224  19
225  16
226  16
227  11
228  7
229  8
230  16
231  9
232  6
233  4
234  14
235  10
236  9
237  6
238  4
239  8
240  4
241  3
242  4
243  8
244  4
245  5
246  5
247  1
248  4
249  5
250  4
251  2
252  5
253  2
254  4
255  4
256  6
257  1
258  2
259  3
260  5
261  3
262  0
263  2
264  6
265  3
266  3
267  6
268  4
269  5
270  4
271  6
272  3
273  0
274  0
275  4
276  7
277  3
278  4
279  2
280  2
281  4
282  3
283  2
284  4
285  2
286  8
287  2
288  1
289  5
290  3
291  3
292  5
293  2
294  0
295  2
296  3
297  2
298  6
299  2
300  4
301  1
302  4
303  5
304  3
305  4
306  4
307  5
308  2
309  2
310  4
311  3
312  4
313  1
314  4
315  4
316  2
317  4
318  1
319  2
320  1
321  2
322  4
323  7
324  1
325  4
326  6
327  2
328  2
329  2
330  2
331  2
332  4
333  2
334  4
335  0
336  2
337  2
338  3
339  3
340  1
341  7
342  3
343  1
344  1
345  2
346  1
347  1
348  3
349  1
350  1
351  5
352  3
353  1
354  5
355  3
356  4
357  3
358  0
359  0
360  4
361  0
362  0
363  6
364  4
365  0
366  9
367  3
368  2
369  2
370  4
371  4
372  4
373  5
374  1
375  2
376  2
377  3
378  2
379  2
380  3
381  3
382  6
383  2
384  4
385  4
386  4
387  6
388  3
389  5
390  4
391  3
392  2
393  2
394  1
395  4
396  4
397  5
398  3
399  2
400  4
401  0
402  3
403  1
404  1
405  1
406  2
407  5
408  6
409  5
410  5
411  2
412  3
413  3
414  3
415  7
416  9
417  0
418  2
419  3
420  0
421  1
422  3
423  3
424  4
425  4
426  0
427  9
428  2
429  2
430  3
431  1
432  5
433  3
434  3
435  2
436  1
437  2
438  3
439  8
440  3
441  3
442  3
443  5
444  5
445  1
446  4
447  7
448  7
449  6
450  3
451  4
452  1
453  2
454  5
455  1
456  1
457  2
458  5
459  4
460  1
461  4
462  4
463  5
464  3
465  5
466  1
467  0
468  6
469  3
470  1
471  0
472  3
473  3
474  3
475  3
476  5
477  6
478  3
479  5
480  2
481  1
482  4
483  5
484  5
485  5
486  2
487  3
488  5
489  1
490  6
491  0
492  4
493  2
494  4
495  2
496  5
497  5
498  0
499  3
500  2
501  4
502  6
503  2
504  2
505  3
506  2
507  4
508  4
509  5
510  5
511  2
512  4
513  0
514  5
515  5
516  1
517  3
518  1
519  5
520  4
521  2
522  1
523  5
524  0
525  6
526  7
527  2
528  1
529  3
530  5
531  1
532  4
533  1
534  5
535  1
536  4
537  3
538  4
539  3
540  7
541  4
542  2
543  4
544  5
545  4
546  5
547  2
548  3
549  4
550  3
551  2
552  3
553  3
554  4
555  3
556  4
557  2
558  6
559  4
560  1
561  5
562  4
563  0
564  3
565  4
566  6
567  6
568  2
569  3
570  2
571  2
572  3
573  3
574  2
575  3
576  3
577  1
578  0
579  0
580  1
581  3
582  4
583  2
584  1
585  3
586  1
587  4
588  1
589  5
590  4
591  7
592  2
593  2
594  0
595  2
596  3
597  4
598  3
599  5
600  6
601  3
602  3
603  4
604  1
605  6
606  3
607  4
608  4
609  2
610  4
611  0
612  3
613  4
614  5
615  3
616  4
617  4
618  0
619  1
620  5
621  2
622  1
623  2
624  1
625  3
626  1
627  4
628  2
629  4
630  7
631  1
632  5
633  4
634  3
635  1
636  2
637  1
638  2
639  2
640  3
641  3
642  3
643  4
644  3
645  3
646  1
647  5
648  8
649  3
650  7
651  4
652  2
653  1
654  4
655  2
656  3
657  3
658  0
659  3
660  2
661  0
662  7
663  2
664  1
665  3
666  0
667  2
668  3
669  3
670  3
671  2
672  3
673  4
674  4
675  2
676  3
677  4
678  4
679  5
680  6
681  2
682  5
683  3
684  4
685  5
686  3
687  4
688  4
689  1
690  3
691  3
692  2
693  6
694  2
695  3
696  3
697  2
698  4
699  2
700  3
701  1
702  7
703  4
704  1
705  4
706  2
707  0
708  0
709  3
710  3
711  2
712  2
713  3
714  3
715  3
716  0
717  2
718  3
719  4
720  0
721  3
722  2
723  1
724  3
725  1
726  1
727  2
728  2
729  3
730  2
731  2
732  3
733  1
734  5
735  2
736  1
737  2
738  2
739  0
740  1
741  4
742  5
743  2
744  6
745  2
746  4
747  3
748  1
749  1
750  5
751  4
752  2
753  1
754  4
755  1
756  7
757  2
758  5
759  5
760  0
761  0
762  1
763  1
764  2
765  3
766  2
767  1
768  2
769  3
770  3
771  2
772  2
773  4
774  2
775  0
776  1
777  1
778  2
779  1
780  1
781  4
782  2
783  2
784  5
785  3
786  3
787  0
788  1
789  2
790  1
791  1
792  1
793  4
794  4
795  1
796  0
797  5
798  2
799  2
800  6
801  2
802  4
803  4
804  1
805  1
806  3
807  0
808  3
809  2
810  4
811  1
812  2
813  2
814  2
815  3
816  4
817  3
818  2
819  3
820  1
821  2
822  3
823  0
824  3
825  2
826  3
827  0
828  1
829  1
830  1
831  4
832  2
833  1
834  5
835  2
836  5
837  4
838  4
839  2
840  2
841  1
842  1
843  0
844  4
845  2
846  2
847  2
848  1
849  2
850  1
851  4
852  3
853  1
854  1
855  2
856  3
857  2
858  1
859  2
860  1
861  1
862  1
863  0
864  4
865  1
866  2
867  4
868  1
869  1
870  1
871  1
872  1
873  0
874  1
875  0
876  2
877  0
878  5
879  2
880  3
881  2
882  0
883  4
884  0
885  2
886  4
887  2
888  0
889  0
890  3
891  0
892  1
893  5
894  1
895  0
896  2
897  0
898  4
899  1
900  1
901  1
902  4
903  1
904  0
905  1
906  3
907  0
908  2
909  2
910  2
911  1
912  2
913  0
914  1
915  2
916  1
917  1
918  1
919  2
920  3
921  1
922  2
923  0
924  1
925  0
926  0
927  0
928  1
929  2
930  0
931  1
932  1
933  1
934  1
935  0
936  2
937  0
938  3
939  1
940  0
941  2
942  0
943  1
944  1
945  3
946  2
947  1
948  0
949  1
950  3
951  1
952  1
953  1
954  1
955  0
956  2
957  0
958  0
959  3
960  3
961  2
962  0
963  1
964  1
965  2
966  1
967  1
968  4
969  0
970  3
971  3
972  0
973  0
974  2
975  2
976  1
977  1
978  2
979  2
980  1
981  1
982  1
983  2
984  0
985  1
986  1
987  3
988  1
989  0
990  1
991  1
992  2
993  2
994  0
995  2
996  3
997  2
998  0
999  1
1000  0
1001  2
1002  1
1003  3
1004  1
1005  1
1006  0
1007  1
1008  1
1009  1
1010  2
1011  1
1012  0
1013  0
1014  1
1015  0
1016  1
1017  0
1018  0
1019  0
1020  0
1021  2
1022  1
1023  4
1024  3
1025  0
1026  0
1027  2
1028  1
1029  2
1030  1
1031  3
1032  1
1033  0
1034  1
1035  1
1036  0
1037  1
1038  1
1039  2
1040  3
1041  1
1042  0
1043  0
1044  0
1045  0
1046  1
1047  0
1048  1
1049  1
1050  0
1051  2
1052  0
1053  0
1054  1
1055  1
1056  1
1057  1
1058  0
1059  3
1060  0
1061  3
1062  2
1063  1
1064  0
1065  3
1066  0
1067  1
1068  0
1069  0
1070  0
1071  0
1072  1
1073  0
1074  0
1075  0
1076  0
1077  0
1078  0
1079  2
1080  1
1081  0
1082  0
1083  0
1084  1
1085  0
1086  0
1087  0
1088  1
1089  1
1090  0
1091  2
1092  1
1093  0
1094  1
1095  1
1096  1
1097  0
1098  1
1099  0
1100  0
1101  0
1102  2
1103  0
1104  2
1105  0
1106  1
1107  0
1108  2
1109  0
1110  0
1111  0
1112  1
1113  0
1114  1
1115  0
1116  1
1117  1
1118  0
1119  0
1120  1
1121  3
1122  2
1123  0
1124  0
1125  1
1126  1
1127  0
1128  0
1129  0
1130  1
1131  1
1132  0
1133  0
1134  2
1135  1
1136  0
1137  1
1138  4
1139  0
1140  0
1141  0
1142  1
1143  2
1144  1
1145  0
1146  1
1147  0
1148  3
1149  0
1150  1
1151  0
1152  0
1153  3
1154  0
1155  0
1156  1
1157  2
1158  1
1159  0
1160  1
1161  0
1162  1
1163  0
1164  0
1165  1
1166  1
1167  0
1168  0
1169  3
1170  0
1171  1
1172  1
1173  1
1174  3
1175  2
1176  2
1177  2
1178  1
1179  1
1180  1
1181  0
1182  0
1183  0
1184  2
1185  0
1186  1
1187  0
1188  1
1189  3
1190  0
1191  1
1192  0
1193  0
1194  2
1195  1
1196  0
1197  0
1198  1
1199  1
1200  1
1201  1
1202  1
1203  0
1204  0
1205  3
1206  0
1207  0
1208  0
1209  0
1210  0
1211  1
1212  0
1213  2
1214  1
1215  0
1216  2
1217  1
1218  2
1219  1
1220  0
1221  4
1222  4
1223  2
1224  3
1225  2
1226  0
1227  1
1228  0
1229  1
1230  3
1231  1
1232  1
1233  0
1234  0
1235  0
1236  0
1237  0
1238  0
1239  0
1240  2
1241  2
1242  0
1243  1
1244  3
1245  0
1246  2
1247  2
1248  0
1249  2
1250  3
1251  2
1252  1
1253  1
1254  0
1255  1
1256  1
1257  0
1258  2
1259  2
1260  0
1261  0
1262  0
1263  0
1264  0
1265  3
1266  0
1267  0
1268  1
1269  0
1270  1
1271  0
1272  1
1273  1
1274  1
1275  2
1276  0
1277  0
1278  2
1279  0
1280  0
1281  0
1282  2
1283  1
1284  1
1285  0
1286  1
1287  0
1288  0
1289  0
1290  1
1291  1
1292  1
1293  1
1294  0
1295  0
1296  1
1297  0
1298  2
1299  1
1300  1
1301  0
1302  0
1303  0
1304  3
1305  0
1306  0
1307  2
1308  1
1309  1
1310  1
1311  0
1312  0
1313  0
1314  0
1315  0
1316  0
1317  1
1318  1
1319  1
1320  2
1321  1
1322  0
1323  0
1324  1
1325  0
1326  1
1327  0
1328  1
1329  0
1330  0
1331  0
1332  0
1333  1
1334  0
1335  1
1336  1
1337  0
1338  1
1339  1
1340  1
1341  0
1342  0
1343  4
1344  2
1345  0
1346  1
1347  1
1348  1
1349  3
1350  0
1351  2
1352  1
1353  1
1354  2
1355  3
1356  2
1357  1
1358  0
1359  2
1360  3
1361  1
1362  1
1363  1
1364  2
1365  1
1366  1
1367  3
1368  0
1369  0
1370  1
1371  0
1372  2
1373  0
1374  0
1375  0
1376  1
1377  1
1378  0
1379  0
1380  0
1381  2
1382  1
1383  0
1384  2
1385  0
1386  0
1387  0
1388  0
1389  0
1390  1
1391  0
1392  1
1393  0
1394  4
1395  2
1396  1
1397  2
1398  2
1399  0
1400  0
1401  1
1402  3
1403  0
1404  1
1405  0
1406  1
1407  0
1408  0
1409  1
1410  0
1411  1
1412  1
1413  1
1414  2
1415  1
1416  1
1417  0
1418  0
1419  2
1420  2
1421  0
1422  0
1423  1
1424  2
1425  2
1426  0
1427  1
1428  0
1429  1
1430  0
1431  1
1432  2
1433  2
1434  1
1435  1
1436  0
1437  0
1438  0
1439  0
1440  0
1441  0
1442  1
1443  1
1444  0
1445  2
1446  0
1447  1
1448  1
1449  0
1450  0
1451  2
1452  1
1453  0
1454  1
1455  1
1456  4
1457  1
1458  2
1459  3
1460  0
1461  1
1462  0
1463  1
1464  3
1465  0
1466  0
1467  1
1468  2
1469  1
1470  0
1471  1
1472  1
1473  0
1474  2
1475  0
1476  0
1477  3
1478  3
1479  3
1480  0
1481  1
1482  2
1483  0
1484  1
1485  2
1486  2
1487  2
1488  2
1489  0
1490  1
1491  3
1492  1
1493  1
1494  3
1495  3
1496  3
1497  1
1498  0
1499  2
1500  0
1501  1
1502  1
1503  2
1504  4
1505  0
1506  1
1507  1
1508  3
1509  2
1510  1
1511  1
1512  2
1513  1
1514  4
1515  0
1516  0
1517  2
1518  1
1519  3
1520  0
1521  0
1522  2
1523  4
1524  2
1525  3
1526  1
1527  1
1528  2
1529  3
1530  0
1531  2
1532  3
1533  4
1534  0
1535  1
1536  2
1537  4
1538  2
1539  2
1540  1
1541  0
1542  2
1543  3
1544  2
1545  3
1546  1
1547  2
1548  2
1549  4
1550  1
1551  2
1552  1
1553  2
1554  2
1555  0
1556  2
1557  0
1558  4
1559  0
1560  1
1561  2
1562  2
1563  4
1564  3
1565  4
1566  3
1567  0
1568  4
1569  6
1570  2
1571  6
1572  3
1573  4
1574  5
1575  9
1576  11
1577  10
1578  18
1579  17
1580  17
1581  22
1582  18
1583  29
1584  17
1585  33
1586  33
1587  45
1588  32
1589  41
1590  42
1591  37
1592  44
1593  58
1594  32
1595  42
1596  48
1597  49
1598  46
1599  36
1600  62
1601  42
1602  49
1603  38
1604  30
1605  29
1606  41
1607  33
1608  13
1609  22
1610  32
1611  24
1612  26
1613  17
1614  19
1615  10
1616  17
1617  14
1618  12
1619  8
1620  9
1621  10
1622  8
1623  8
1624  7
1625  7
1626  7
1627  3
1628  3
1629  4
1630  2
1631  1
1632  4
1633  4
1634  9
1635  4
1636  1
1637  2
1638  4
1639  3
1640  8
1641  2
1642  4
1643  4
1644  10
1645  3
1646  6
1647  4
1648  1
1649  3
1650  3
1651  5
1652  5
1653  3
1654  5
1655  7
1656  6
1657  10
1658  6
1659  4
1660  11
1661  9
1662  13
1663  23
1664  14
1665  34
1666  20
1667  22
1668  34
1669  37
1670  42
1671  53
1672  48
1673  37
1674  60
1675  51
1676  55
1677  55
1678  76
1679  60
1680  59
1681  58
1682  52
1683  70
1684  56
1685  56
1686  66
1687  49
1688  55
1689  56
1690  54
1691  40
1692  43
1693  42
1694  36
1695  43
1696  35
1697  33
1698  26
1699  25
1700  32
1701  26
1702  20
1703  23
1704  21
1705  17
1706  16
1707  14
1708  17
1709  13
1710  12
1711  14
1712  27
1713  12
1714  13
1715  13
1716  15
1717  12
1718  7
1719  6
1720  16
1721  9
1722  9
1723  10
1724  10
1725  13
1726  14
1727  12
1728  7
1729  7
1730  11
1731  4
1732  7
1733  7
1734  11
1735  9
1736  12
1737  13
1738  8
1739  4
1740  8
1741  7
1742  6
1743  9
1744  4
1745  10
1746  10
1747  4
1748  6
1749  8
1750  5
1751  9
1752  8
1753  5
1754  11
1755  7
1756  7
1757  10
1758  13
1759  8
1760  9
1761  9
1762  9
1763  10
1764  10
1765  11
1766  7
1767  5
1768  8
1769  9
1770  10
1771  3
1772  13
1773  7
1774  9
1775  10
1776  10
1777  5
1778  9
1779  5
1780  4
1781  5
1782  7
1783  4
1784  4
1785  2
1786  8
1787  5
1788  5
1789  6
1790  2
1791  3
1792  3
1793  0
1794  3
1795  2
1796  6
1797  2
1798  6
1799  2
1800  5
1801  0
1802  6
1803  0
1804  0
1805  2
1806  5
1807  2
1808  2
1809  3
1810  0
1811  2
1812  1
1813  0
1814  1
1815  3
1816  1
1817  3
1818  2
1819  3
1820  1
1821  3
1822  3
1823  1
1824  5
1825  2
1826  5
1827  1
1828  4
1829  2
1830  4
1831  4
1832  4
1833  3
1834  3
1835  5
1836  0
1837  3
1838  6
1839  5
1840  4
1841  5
1842  5
1843  9
1844  7
1845  9
1846  7
1847  12
1848  21
1849  15
1850  11
1851  8
1852  14
1853  17
1854  18
1855  23
1856  23
1857  26
1858  16
1859  29
1860  25
1861  20
1862  26
1863  18
1864  22
1865  27
1866  24
1867  28
1868  19
1869  18
1870  19
1871  16
1872  21
1873  19
1874  18
1875  11
1876  16
1877  6
1878  11
1879  10
1880  14
1881  8
1882  16
1883  10
1884  6
1885  13
1886  9
1887  6
1888  2
1889  7
1890  7
1891  5
1892  6
1893  6
1894  6
1895  6
1896  2
1897  5
1898  5
1899  6
1900  5
1901  7
1902  5
1903  5
1904  3
1905  3
1906  0
1907  4
1908  6
1909  3
1910  4
1911  1
1912  1
1913  3
1914  4
1915  0
1916  2
1917  2
1918  2
1919  1
1920  1
1921  2
1922  1
1923  4
1924  7
1925  3
1926  4
1927  5
1928  3
1929  3
1930  4
1931  3
1932  0
1933  3
1934  2
1935  0
1936  3
1937  1
1938  1
1939  2
1940  3
1941  4
1942  6
1943  3
1944  1
1945  2
1946  3
1947  5
1948  3
1949  2
1950  2
1951  2
1952  1
1953  0
1954  2
1955  2
1956  1
1957  3
1958  1
1959  3
1960  4
1961  1
1962  3
1963  0
1964  1
1965  1
1966  3
1967  0
1968  5
1969  1
1970  2
1971  1
1972  0
1973  0
1974  6
1975  3
1976  5
1977  3
1978  5
1979  1
1980  3
1981  2
1982  1
1983  4
1984  1
1985  1
1986  4
1987  3
1988  7
1989  1
1990  2
1991  0
1992  3
1993  5
1994  1
1995  4
1996  2
1997  0
1998  2
1999  2
2000  3
2001  2
2002  5
2003  3
2004  2
2005  3
2006  0
2007  1
2008  3
2009  5
2010  2
2011  2
2012  1
2013  6
2014  6
2015  7
2016  1
2017  4
2018  0
2019  2
2020  4
2021  7
2022  3
2023  1
2024  2
2025  1
2026  1
2027  8
2028  0
2029  2
2030  3
2031  4
2032  2
2033  4
2034  1
2035  3
2036  4
2037  5
2038  1
2039  3
2040  7
2041  1
2042  3
2043  4
2044  2
2045  3
2046  5
2047  2
2048  2
2049  3
2050  5
2051  5
2052  3
2053  0
2054  3
2055  3
2056  2
2057  2
2058  2
2059  3
2060  2
2061  2
2062  0
2063  2
2064  1
2065  2
2066  3
2067  3
2068  2
2069  1
2070  4
2071  3
2072  5
2073  4
2074  1
2075  3
2076  3
2077  2
2078  4
2079  2
2080  0
2081  2
2082  2
2083  2
2084  5
2085  4
2086  5
2087  3
2088  0
2089  3
2090  1
2091  3
2092  5
2093  1
2094  3
2095  1
2096  4
2097  2
2098  3
2099  4
2100  4
2101  3
2102  5
2103  5
2104  2
2105  4
2106  2
2107  1
2108  3
2109  3
2110  2
2111  3
2112  2
2113  1
2114  4
2115  3
2116  8
2117  5
2118  5
2119  5
2120  2
2121  1
2122  0
2123  2
2124  0
2125  1
2126  2
2127  3
2128  2
2129  0
2130  1
2131  3
2132  4
2133  3
2134  2
2135  4
2136  4
2137  5
2138  5
2139  3
2140  2
2141  3
2142  1
2143  2
2144  1
2145  1
2146  3
2147  5
2148  6
2149  8
2150  1
2151  2
2152  4
2153  4
2154  4
2155  4
2156  2
2157  2
2158  3
2159  2
2160  3
2161  1
2162  6
2163  3
2164  2
2165  3
2166  1
2167  3
2168  3
2169  1
2170  4
2171  3
2172  5
2173  1
2174  3
2175  3
2176  2
2177  4
2178  2
2179  2
2180  4
2181  3
2182  2
2183  8
2184  5
2185  5
2186  3
2187  1
2188  0
2189  3
2190  7
2191  1
2192  4
2193  2
2194  5
2195  2
2196  2
2197  0
2198  3
2199  6
2200  5
2201  2
2202  0
2203  4
2204  1
2205  3
2206  0
2207  2
2208  3
2209  5
2210  3
2211  2
2212  4
2213  6
2214  3
2215  3
2216  1
2217  4
2218  4
2219  4
2220  4
2221  7
2222  3
2223  3
2224  5
2225  4
2226  4
2227  1
2228  5
2229  2
2230  1
2231  1
2232  0
2233  2
2234  1
2235  2
2236  7
2237  1
2238  5
2239  3
2240  2
2241  2
2242  5
2243  4
2244  3
2245  2
2246  2
2247  1
2248  4
2249  1
2250  1
2251  3
2252  0
2253  3
2254  3
2255  1
2256  1
2257  4
2258  1
2259  1
2260  2
2261  4
2262  2
2263  3
2264  4
2265  1
2266  3
2267  9
2268  2
2269  3
2270  3
2271  6
2272  3
2273  2
2274  3
2275  6
2276  3
2277  6
2278  2
2279  0
2280  5
2281  3
2282  5
2283  2
2284  2
2285  0
2286  4
2287  4
2288  1
2289  6
2290  3
2291  3
2292  4
2293  5
2294  4
2295  4
2296  3
2297  8
2298  3
2299  1
2300  4
2301  3
2302  1
2303  2
2304  3
2305  3
2306  2
2307  1
2308  1
2309  3
2310  4
2311  1
2312  1
2313  2
2314  1
2315  2
2316  0
2317  2
2318  4
2319  0
2320  2
2321  1
2322  5
2323  5
2324  2
2325  2
2326  2
2327  5
2328  2
2329  5
2330  4
2331  1
2332  3
2333  3
2334  4
2335  5
2336  2
2337  5
2338  0
2339  0
2340  3
2341  2
2342  2
2343  2
2344  4
2345  2
2346  4
2347  2
2348  3
2349  3
2350  2
2351  4
2352  3
2353  4
2354  2
2355  4
2356  1
2357  3
2358  3
2359  2
2360  4
2361  3
2362  6
2363  6
2364  4
2365  3
2366  3
2367  1
2368  2
2369  4
2370  4
2371  3
2372  2
2373  4
2374  0
2375  5
2376  2
2377  0
2378  3
2379  3
2380  3
2381  3
2382  2
2383  1
2384  6
2385  3
2386  0
2387  8
2388  5
2389  1
2390  3
2391  5
2392  1
2393  3
2394  3
2395  3
2396  4
2397  2
2398  4
2399  2
2400  4
2401  2
2402  1
2403  7
2404  0
2405  2
2406  4
2407  0
2408  5
2409  1
2410  3
2411  2
2412  3
2413  4
2414  1
2415  4
2416  3
2417  1
2418  1
2419  5
2420  1
2421  4
2422  1
2423  4
2424  4
2425  4
2426  1
2427  1
2428  4
2429  7
2430  6
2431  2
2432  5
2433  2
2434  5
2435  1
2436  3
2437  5
2438  5
2439  3
2440  5
2441  7
2442  4
2443  2
2444  2
2445  6
2446  4
2447  1
2448  0
2449  4
2450  4
2451  0
2452  2
2453  3
2454  3
2455  5
2456  3
2457  5
2458  2
2459  2
2460  3
2461  3
2462  3
2463  4
2464  1
2465  4
2466  7
2467  2
2468  7
2469  3
2470  5
2471  4
2472  4
2473  2
2474  5
2475  3
2476  4
2477  6
2478  0
2479  4
2480  2
2481  3
2482  1
2483  0
2484  3
2485  5
2486  2
2487  2
2488  2
2489  4
2490  3
2491  4
2492  5
2493  6
2494  0
2495  2
2496  2
2497  2
2498  1
2499  2
2500  6
2501  2
2502  2
2503  0
2504  2
2505  2
2506  2
2507  2
2508  2
2509  2
2510  5
2511  4
2512  5
2513  5
2514  3
2515  5
2516  1
2517  4
2518  2
2519  2
2520  6
2521  2
2522  3
2523  5
2524  1
2525  2
2526  2
2527  2
2528  5
2529  6
2530  2
2531  3
2532  0
2533  7
2534  3
2535  2
2536  4
2537  5
2538  3
2539  4
2540  2
2541  0
2542  3
2543  4
2544  2
2545  4
2546  2
2547  5
2548  1
2549  4
2550  2
2551  2
2552  5
2553  2
2554  4
2555  4
2556  5
2557  2
2558  1
2559  1
2560  2
2561  4
2562  3
2563  2
2564  4
2565  3
2566  2
2567  2
2568  5
2569  4
2570  2
2571  3
2572  3
2573  0
2574  2
2575  2
2576  3
2577  1
2578  3
2579  1
2580  2
2581  4
2582  0
2583  5
2584  1
2585  3
2586  3
2587  1
2588  4
2589  3
2590  1
2591  2
2592  4
2593  0
2594  2
2595  1
2596  3
2597  0
2598  1
2599  3
2600  2
2601  0
2602  2
2603  4
2604  2
2605  0
2606  4
2607  1
2608  4
2609  4
2610  4
2611  0
2612  1
2613  6
2614  4
2615  1
2616  3
2617  6
2618  5
2619  2
2620  0
2621  1
2622  1
2623  1
2624  1
2625  3
2626  4
2627  1
2628  4
2629  1
2630  2
2631  2
2632  4
2633  3
2634  0
2635  2
2636  6
2637  2
2638  2
2639  0
2640  1
2641  2
2642  3
2643  2
2644  1
2645  5
2646  3
2647  3
2648  2
2649  0
2650  4
2651  2
2652  2
2653  1
2654  0
2655  1
2656  5
2657  4
2658  6
2659  1
2660  3
2661  2
2662  4
2663  1
2664  3
2665  0
2666  0
2667  0
2668  2
2669  2
2670  2
2671  0
2672  1
2673  1
2674  2
2675  3
2676  4
2677  2
2678  1
2679  3
2680  2
2681  5
2682  2
2683  3
2684  1
2685  2
2686  2
2687  2
2688  1
2689  1
2690  2
2691  1
2692  3
2693  4
2694  3
2695  2
2696  0
2697  1
2698  1
2699  1
2700  2
2701  4
2702  1
2703  0
2704  2
2705  1
2706  0
2707  1
2708  1
2709  2
2710  2
2711  1
2712  3
2713  1
2714  3
2715  1
2716  1
2717  3
2718  3
2719  3
2720  1
2721  1
2722  2
2723  1
2724  3
2725  3
2726  2
2727  0
2728  3
2729  1
2730  1
2731  3
2732  1
2733  2
2734  3
2735  1
2736  1
2737  3
2738  2
2739  1
2740  3
2741  2
2742  2
2743  1
2744  2
2745  1
2746  3
2747  0
2748  1
2749  2
2750  2
2751  4
2752  1
2753  0
2754  0
2755  2
2756  2
2757  2
2758  1
2759  1
2760  1
2761  0
2762  4
2763  0
2764  1
2765  2
2766  1
2767  1
2768  3
2769  2
2770  2
2771  2
2772  2
2773  3
2774  2
2775  3
2776  1
2777  2
2778  3
2779  2
2780  0
2781  1
2782  2
2783  1
2784  2
2785  1
2786  2
2787  4
2788  1
2789  3
2790  5
2791  1
2792  1
2793  3
2794  3
2795  0
2796  1
2797  1
2798  2
2799  0
2800  1
2801  1
2802  2
2803  4
2804  2
2805  1
2806  2
2807  1
2808  1
2809  1
2810  0
2811  0
2812  1
2813  0
2814  0
2815  0
2816  2
2817  2
2818  2
2819  1
2820  1
2821  2
2822  2
2823  3
2824  0
2825  1
2826  3
2827  3
2828  3
2829  3
2830  1
2831  0
2832  1
2833  4
2834  3
2835  1
2836  1
2837  4
2838  4
2839  1
2840  1
2841  2
2842  2
2843  1
2844  3
2845  0
2846  1
2847  0
2848  2
2849  1
2850  1
2851  0
2852  3
2853  1
2854  1
2855  0
2856  2
2857  1
2858  2
2859  1
2860  2
2861  1
2862  2
2863  1
2864  0
2865  0
2866  1
2867  0
2868  2
2869  1
2870  0
2871  1
2872  0
2873  3
2874  5
2875  0
2876  1
2877  0
2878  1
2879  0
2880  0
2881  1
2882  3
2883  0
2884  3
2885  2
2886  2
2887  2
2888  1
2889  1
2890  0
2891  0
2892  4
2893  2
2894  0
2895  0
2896  1
2897  0
2898  1
2899  0
2900  0
2901  1
2902  2
2903  1
2904  2
2905  0
2906  0
2907  1
2908  2
2909  1
2910  1
2911  0
2912  2
2913  1
2914  1
2915  2
2916  0
2917  0
2918  0
2919  0
2920  0
2921  0
2922  1
2923  0
2924  1
2925  0
2926  1
2927  2
2928  1
2929  0
2930  0
2931  1
2932  2
2933  0
2934  0
2935  2
2936  1
2937  0
2938  5
2939  1
2940  0
2941  2
2942  1
2943  2
2944  1
2945  0
2946  1
2947  0
2948  0
2949  0
2950  0
2951  1
2952  0
2953  4
2954  0
2955  0
2956  0
2957  0
2958  0
2959  0
2960  0
2961  2
2962  2
2963  1
2964  1
2965  0
2966  1
2967  3
2968  1
2969  0
2970  1
2971  3
2972  0
2973  1
2974  1
2975  0
2976  0
2977  0
2978  0
2979  1
2980  0
2981  0
2982  0
2983  1
2984  2
2985  0
2986  0
2987  5
2988  0
2989  4
2990  0
2991  0
2992  0
2993  1
2994  0
2995  1
2996  0
2997  2
2998  1
2999  0
3000  0
3001  0
3002  1
3003  1
3004  0
3005  2
3006  0
3007  0
3008  2
3009  1
3010  2
3011  2
3012  1
3013  2
3014  0
3015  0
3016  2
3017  0
3018  1
3019  3
3020  4
3021  1
3022  2
3023  0
3024  1
3025  0
3026  0
3027  0
3028  0
3029  3
3030  0
3031  0
3032  2
3033  0
3034  1
3035  0
3036  0
3037  2
3038  2
3039  3
3040  2
3041  0
3042  1
3043  2
3044  0
3045  1
3046  1
3047  0
3048  1
3049  1
3050  1
3051  1
3052  1
3053  2
3054  0
3055  0
3056  1
3057  2
3058  1
3059  2
3060  1
3061  1
3062  1
3063  1
3064  0
3065  0
3066  0
3067  0
3068  1
3069  0
3070  3
3071  0
3072  1
3073  1
3074  1
3075  1
3076  2
3077  0
3078  1
3079  0
3080  2
3081  2
3082  1
3083  2
3084  0
3085  0
3086  0
3087  0
3088  1
3089  0
3090  0
3091  0
3092  0
3093  0
3094  1
3095  0
3096  1
3097  2
3098  0
3099  0
3100  0
3101  1
3102  1
3103  0
3104  1
3105  0
3106  1
3107  1
3108  2
3109  0
3110  1
3111  0
3112  1
3113  0
3114  1
3115  0
3116  0
3117  2
3118  0
3119  0
3120  0
3121  4
3122  1
3123  1
3124  2
3125  2
3126  0
3127  0
3128  3
3129  1
3130  2
3131  1
3132  2
3133  1
3134  2
3135  0
3136  1
3137  2
3138  1
3139  2
3140  0
3141  1
3142  1
3143  1
3144  1
3145  0
3146  1
3147  0
3148  4
3149  0
3150  2
3151  2
3152  2
3153  1
3154  0
3155  1
3156  4
3157  0
3158  2
3159  1
3160  1
3161  0
3162  2
3163  1
3164  0
3165  1
3166  2
3167  0
3168  5
3169  0
3170  1
3171  0
3172  0
3173  2
3174  1
3175  1
3176  3
3177  1
3178  0
3179  2
3180  1
3181  0
3182  1
3183  1
3184  0
3185  0
3186  0
3187  2
3188  1
3189  0
3190  2
3191  0
3192  0
3193  0
3194  0
3195  1
3196  0
3197  2
3198  2
3199  0
3200  1
3201  1
3202  0
3203  1
3204  0
3205  0
3206  0
3207  0
3208  1
3209  2
3210  0
3211  1
3212  2
3213  0
3214  0
3215  1
3216  2
3217  1
3218  0
3219  0
3220  2
3221  1
3222  1
3223  0
3224  1
3225  0
3226  1
3227  1
3228  0
3229  1
3230  0
3231  2
3232  1
3233  1
3234  0
3235  3
3236  1
3237  2
3238  1
3239  2
3240  2
3241  2
3242  0
3243  1
3244  2
3245  1
3246  1
3247  3
3248  0
3249  2
3250  2
3251  1
3252  1
3253  0
3254  3
3255  2
3256  1
3257  1
3258  2
3259  3
3260  0
3261  1
3262  3
3263  2
3264  0
3265  1
3266  0
3267  1
3268  4
3269  1
3270  2
3271  0
3272  0
3273  1
3274  1
3275  1
3276  0
3277  2
3278  1
3279  1
3280  1
3281  0
3282  2
3283  2
3284  3
3285  0
3286  0
3287  3
3288  2
3289  0
3290  2
3291  3
3292  3
3293  2
3294  0
3295  0
3296  0
3297  1
3298  3
3299  0
3300  2
3301  2
3302  0
3303  2
3304  0
3305  0
3306  0
3307  2
3308  1
3309  1
3310  2
3311  2
3312  1
3313  2
3314  2
3315  0
3316  0
3317  4
3318  1
3319  3
3320  2
3321  3
3322  0
3323  3
3324  0
3325  0
3326  1
3327  0
3328  0
3329  1
3330  4
3331  1
3332  3
3333  1
3334  2
3335  2
3336  1
3337  2
3338  0
3339  1
3340  3
3341  3
3342  0
3343  1
3344  0
3345  0
3346  2
3347  1
3348  1
3349  1
3350  3
3351  0
3352  0
3353  0
3354  1
3355  1
3356  1
3357  0
3358  0
3359  2
3360  2
3361  4
3362  0
3363  0
3364  1
3365  4
3366  1
3367  0
3368  2
3369  0
3370  1
3371  0
3372  3
3373  2
3374  1
3375  1
3376  1
3377  3
3378  3
3379  2
3380  2
3381  1
3382  1
3383  2
3384  2
3385  2
3386  2
3387  0
3388  1
3389  2
3390  1
3391  2
3392  1
3393  1
3394  0
3395  2
3396  2
3397  1
3398  1
3399  1
3400  2
3401  3
3402  0
3403  1
3404  0
3405  2
3406  2
3407  3
3408  2
3409  2
3410  2
3411  3
3412  2
3413  4
3414  2
3415  6
3416  3
3417  0
3418  2
3419  2
3420  1
3421  1
3422  0
3423  0
3424  0
3425  1
3426  1
3427  0
3428  1
3429  1
3430  0
3431  1
3432  3
3433  3
3434  1
3435  4
3436  3
3437  3
3438  2
3439  2
3440  4
3441  2
3442  1
3443  4
3444  2
3445  1
3446  2
3447  2
3448  4
3449  1
3450  3
3451  3
3452  3
3453  7
3454  3
3455  8
3456  5
3457  9
3458  13
3459  12
3460  15
3461  15
3462  10
3463  18
3464  21
3465  28
3466  25
3467  32
3468  24
3469  38
3470  39
3471  42
3472  36
3473  41
3474  39
3475  42
3476  41
3477  46
3478  47
3479  51
3480  57
3481  56
3482  42
3483  44
3484  43
3485  30
3486  35
3487  25
3488  32
3489  35
3490  23
3491  20
3492  15
3493  21
3494  17
3495  18
3496  21
3497  17
3498  14
3499  7
3500  12
3501  15
3502  5
3503  8
3504  10
3505  7
3506  10
3507  10
3508  2
3509  7
3510  5
3511  6
3512  6
3513  4
3514  4
3515  8
3516  5
3517  6
3518  4
3519  7
3520  6
3521  2
3522  4
3523  3
3524  3
3525  7
3526  3
3527  5
3528  6
3529  3
3530  5
3531  3
3532  3
3533  8
3534  1
3535  3
3536  12
3537  10
3538  6
3539  7
3540  7
3541  15
3542  5
3543  14
3544  10
3545  20
3546  19
3547  20
3548  27
3549  32
3550  35
3551  38
3552  44
3553  43
3554  45
3555  41
3556  40
3557  53
3558  57
3559  58
3560  58
3561  50
3562  67
3563  60
3564  63
3565  50
3566  57
3567  53
3568  59
3569  60
3570  42
3571  48
3572  42
3573  51
3574  51
3575  40
3576  31
3577  25
3578  39
3579  28
3580  19
3581  28
3582  29
3583  21
3584  17
3585  18
3586  15
3587  19
3588  26
3589  12
3590  18
3591  16
3592  9
3593  13
3594  15
3595  11
3596  17
3597  8
3598  11
3599  12
3600  10
3601  13
3602  12
3603  12
3604  17
3605  12
3606  4
3607  9
3608  10
3609  7
3610  7
3611  11
3612  11
3613  5
3614  4
3615  8
3616  7
3617  10
3618  5
3619  8
3620  12
3621  10
3622  5
3623  12
3624  9
3625  6
3626  6
3627  12
3628  6
3629  7
3630  8
3631  11
3632  12
3633  4
3634  5
3635  4
3636  6
3637  6
3638  9
3639  8
3640  4
3641  10
3642  13
3643  8
3644  10
3645  9
3646  9
3647  9
3648  11
3649  4
3650  8
3651  5
3652  8
3653  11
3654  5
3655  10
3656  3
3657  9
3658  9
3659  4
3660  6
3661  6
3662  8
3663  4
3664  7
3665  6
3666  7
3667  4
3668  8
3669  5
3670  2
3671  5
3672  4
3673  6
3674  4
3675  7
3676  2
3677  3
3678  0
3679  1
3680  3
3681  3
3682  10
3683  0
3684  3
3685  3
3686  4
3687  1
3688  3
3689  4
3690  2
3691  3
3692  3
3693  3
3694  2
3695  3
3696  3
3697  0
3698  5
3699  3
3700  4
3701  1
3702  3
3703  6
3704  2
3705  2
3706  2
3707  1
3708  4
3709  3
3710  2
3711  3
3712  6
3713  3
3714  2
3715  4
3716  0
3717  3
3718  5
3719  5
3720  7
3721  2
3722  3
3723  4
3724  7
3725  8
3726  8
3727  6
3728  11
3729  5
3730  14
3731  14
3732  11
3733  16
3734  16
3735  22
3736  17
3737  26
3738  17
3739  20
3740  24
3741  21
3742  32
3743  21
3744  29
3745  24
3746  21
3747  25
3748  30
3749  23
3750  15
3751  21
3752  15
3753  20
3754  14
3755  12
3756  19
3757  11
3758  10
3759  13
3760  9
3761  15
3762  14
3763  6
3764  8
3765  9
3766  7
3767  4
3768  2
3769  10
3770  15
3771  6
3772  12
3773  9
3774  8
3775  10
3776  6
3777  7
3778  6
3779  4
3780  2
3781  6
3782  3
3783  4
3784  4
3785  6
3786  5
3787  2
3788  2
3789  2
3790  3
3791  2
3792  1
3793  5
3794  6
3795  2
3796  4
3797  3
3798  4
3799  2
3800  2
3801  5
3802  5
3803  6
3804  4
3805  4
3806  1
3807  4
3808  1
3809  6
3810  9
3811  1
3812  1
3813  0
3814  1
3815  3
3816  2
3817  0
3818  3
3819  2
3820  3
3821  2
3822  2
3823  1
3824  4
3825  2
3826  3
3827  1
3828  3
3829  1
3830  2
3831  5
3832  1
3833  1
3834  0
3835  1
3836  5
3837  6
3838  1
3839  1
3840  0
3841  0
3842  0
3843  0
3844  0
3845  0
3846  0
3847  0
3848  0
3849  0
3850  0
3851  0
3852  0
3853  0
3854  0
3855  0
3856  0
3857  0
3858  0
3859  0
3860  0
3861  0
3862  0
3863  0
3864  0
3865  0
3866  0
3867  0
3868  0
3869  0
3870  0
3871  0
3872  0
3873  0
3874  0
3875  0
3876  0
3877  0
3878  0
3879  0
3880  0
3881  0
3882  0
3883  0
3884  0
3885  0
3886  0
3887  0
3888  0
3889  0
3890  0
3891  0
3892  0
3893  0
3894  0
3895  0
3896  0
3897  0
3898  0
3899  0
3900  0
3901  0
3902  0
3903  0
3904  0
3905  0
3906  0
3907  0
3908  0
3909  0
3910  0
3911  0
3912  0
3913  0
3914  0
3915  0
3916  0
3917  0
3918  0
3919  0
3920  0
3921  0
3922  0
3923  0
3924  0
3925  0
3926  0
3927  0
3928  0
3929  0
3930  0
3931  0
3932  0
3933  0
3934  0
3935  0
3936  0
3937  0
3938  0
3939  0
3940  0
3941  0
3942  0
3943  0
3944  0
3945  0
3946  0
3947  0
3948  0
3949  0
3950  0
3951  0
3952  0
3953  0
3954  0
3955  0
3956  0
3957  0
3958  0
3959  0
3960  0
3961  0
3962  0
3963  0
3964  0
3965  0
3966  0
3967  0
3968  0
3969  0
3970  0
3971  0
3972  0
3973  0
3974  0
3975  0
3976  0
3977  0
3978  0
3979  0
3980  0
3981  0
3982  0
3983  0
3984  0
3985  0
3986  0
3987  0
3988  0
3989  0
3990  0
3991  0
3992  0
3993  0
3994  0
3995  0
3996  0
3997  0
3998  0
3999  0
4000  0
4001  0
4002  0
4003  0
4004  0
4005  0
4006  0
4007  0
4008  0
4009  0
4010  0
4011  0
4012  0
4013  0
4014  0
4015  0
4016  0
4017  0
4018  0
4019  0
4020  0
4021  0
4022  0
4023  0
4024  0
4025  0
4026  0
4027  0
4028  0
4029  0
4030  0
4031  0
4032  0
4033  0
4034  0
4035  0
4036  0
4037  0
4038  0
4039  0
4040  0
4041  0
4042  0
4043  0
4044  0
4045  0
4046  0
4047  0
4048  0
4049  0
4050  0
4051  0
4052  0
4053  0
4054  0
4055  0
4056  0
4057  0
4058  0
4059  0
4060  0
4061  0
4062  0
4063  0
4064  0
4065  0
4066  0
4067  0
4068  0
4069  0
4070  0
4071  0
4072  0
4073  0
4074  0
4075  0
4076  0
4077  0
4078  0
4079  0
4080  0
4081  0
4082  0
4083  0
4084  0
4085  0
4086  0
4087  0
4088  0
4089  0
4090  0
4091  0
4092  0
4093  0
4094  0
4095  0
