0  1165
1  1351
2  1647
3  1865
4  2290
5  2456
6  2782
7  3136
8  3429
9  3672
10  3910
11  4247
12  4228
13  4466
14  4653
15  4355
16  4416
17  4217
18  4136
19  3902
20  3709
21  3443
22  3096
23  2757
24  2526
25  2150
26  1886
27  1625
28  1405
29  1165
30  929
31  767
32  629
33  466
34  388
35  285
36  227
37  174
38  118
39  109
40  67
41  50
42  40
43  28
44  17
45  17
46  4
47  9
48  10
49  4
50  3
51  0
52  2
53  0
54  0
55  0
56  0
57  0
58  0
59  0
60  0
61  0
62  0
63  0
64  0
65  0
66  1
67  0
68  0
69  0
70  0
71  0
72  0
73  0
74  0
75  0
76  0
77  0
78  0
79  0
80  0
81  0
82  0
83  0
84  0
85  0
86  0
87  0
88  0
89  0
90  0
91  0
92  0
93  0
94  0
95  0
96  0
97  0
98  0
99  0
100  0
101  0
102  0
103  0
104  0
105  0
106  0
107  0
108  0
109  0
110  0
111  0
112  0
113  0
114  0
115  0
116  0
117  0
118  0
119  0
120  0
121  0
122  0
123  0
124  0
125  0
126  0
127  1
128  0
129  0
130  0
131  0
132  0
133  0
134  0
135  0
136  1
137  0
138  0
139  1
140  0
141  0
142  0
143  0
144  0
145  0
146  0
147  0
148  0
149  0
150  0
151  0
152  0
153  0
154  0
155  0
156  0
157  0
158  0
159  0
160  0
161  0
162  0
163  0
164  0
165  0
166  0
167  0
168  0
169  0
170  0
171  0
172  0
173  0
174  0
175  0
176  0
177  0
178  0
179  0
180  0
181  0
182  1
183  2
184  0
185  1
186  1
187  1
188  1
189  5
190  1
191  9
192  9
193  11
194  25
195  30
196  55
197  48
198  53
199  67
200  98
201  102
202  143
203  154
204  191
205  265
206  266
207  317
208  320
209  371
210  385
211  472
212  533
213  517
214  580
215  562
216  701
217  670
218  675
219  717
220  699
221  704
222  730
223  694
224  668
225  645
226  595
227  583
228  533
229  495
230  489
231  414
232  388
233  327
234  330
235  305
236  292
237  267
238  225
239  252
240  191
241  199
242  212
243  172
244  155
245  174
246  176
247  161
248  141
249  167
250  166
251  178
252  147
253  143
254  154
255  140
256  136
257  163
258  140
259  124
260  145
261  148
262  144
263  135
264  122
265  148
266  149
267  132
268  139
269  138
270  147
271  138
272  161
273  137
274  155
275  145
276  125
277  134
278  181
279  158
280  145
281  135
282  149
283  146
284  168
285  134
286  144
287  146
288  149
289  145
290  149
291  140
292  182
293  153
294  151
295  169
296  172
297  166
298  141
299  157
300  139
301  153
302  168
303  166
304  129
305  131
306  146
307  170
308  145
309  152
310  140
311  140
312  138
313  158
314  142
315  143
316  161
317  153
318  153
319  146
320  167
321  119
322  160
323  147
324  146
325  159
326  159
327  152
328  147
329  136
330  141
331  134
332  145
333  152
334  143
335  147
336  130
337  124
338  141
339  130
340  154
341  142
342  154
343  129
344  150
345  160
346  151
347  177
348  166
349  151
350  136
351  172
352  164
353  171
354  156
355  165
356  136
357  149
358  168
359  150
360  152
361  134
362  157
363  161
364  147
365  145
366  158
367  150
368  168
369  149
370  165
371  125
372  169
373  154
374  129
375  149
376  144
377  154
378  138
379  144
380  134
381  154
382  135
383  154
384  164
385  135
386  144
387  177
388  153
389  166
390  164
391  126
392  134
393  160
394  151
395  155
396  176
397  142
398  173
399  164
400  150
401  142
402  132
403  141
404  159
405  154
406  146
407  158
408  157
409  150
410  156
411  179
412  163
413  137
414  166
415  145
416  138
417  171
418  158
419  161
420  154
421  164
422  141
423  161
424  161
425  170
426  152
427  164
428  148
429  157
430  149
431  173
432  173
433  158
434  170
435  148
436  150
437  151
438  149
439  156
440  154
441  154
442  141
443  167
444  142
445  151
446  169
447  159
448  130
449  152
450  140
451  169
452  178
453  156
454  170
455  147
456  151
457  153
458  172
459  166
460  147
461  160
462  159
463  162
464  157
465  133
466  150
467  155
468  156
469  152
470  148
471  172
472  171
473  157
474  164
475  137
476  155
477  134
478  145
479  160
480  164
481  171
482  149
483  152
484  183
485  162
486  158
487  138
488  195
489  140
490  160
491  143
492  181
493  161
494  140
495  124
496  149
497  158
498  138
499  163
500  166
501  135
502  154
503  147
504  168
505  155
506  165
507  143
508  142
509  174
510  134
511  151
512  147
513  169
514  127
515  162
516  133
517  158
518  149
519  157
520  154
521  155
522  128
523  127
524  148
525  131
526  120
527  152
528  146
529  152
530  155
531  175
532  133
533  149
534  123
535  147
536  138
537  134
538  168
539  151
540  159
541  133
542  151
543  166
544  155
545  136
546  151
547  150
548  143
549  117
550  144
551  144
552  149
553  128
554  149
555  166
556  157
557  124
558  155
559  144
560  149
561  158
562  137
563  136
564  168
565  169
566  143
567  140
568  132
569  163
570  149
571  146
572  146
573  147
574  157
575  155
576  151
577  132
578  136
579  145
580  154
581  134
582  138
583  146
584  133
585  140
586  141
587  118
588  165
589  155
590  143
591  134
592  134
593  148
594  158
595  119
596  151
597  144
598  135
599  137
600  156
601  133
602  118
603  143
604  148
605  128
606  123
607  143
608  149
609  147
610  154
611  136
612  133
613  119
614  118
615  128
616  140
617  130
618  145
619  142
620  147
621  153
622  142
623  153
624  144
625  130
626  150
627  135
628  130
629  113
630  153
631  139
632  117
633  144
634  129
635  135
636  141
637  137
638  146
639  129
640  123
641  152
642  143
643  119
644  148
645  116
646  110
647  118
648  148
649  136
650  111
651  134
652  135
653  143
654  153
655  124
656  148
657  126
658  141
659  133
660  120
661  135
662  111
663  122
664  123
665  126
666  114
667  134
668  126
669  146
670  113
671  110
672  114
673  135
674  131
675  142
676  134
677  127
678  99
679  134
680  149
681  117
682  133
683  127
684  127
685  116
686  131
687  121
688  131
689  131
690  125
691  115
692  144
693  107
694  135
695  120
696  115
697  146
698  122
699  116
700  115
701  143
702  145
703  117
704  123
705  137
706  136
707  134
708  135
709  112
710  132
711  125
712  122
713  121
714  126
715  124
716  110
717  117
718  128
719  110
720  121
721  98
722  127
723  115
724  129
725  108
726  113
727  110
728  134
729  125
730  106
731  117
732  102
733  118
734  111
735  106
736  108
737  128
738  128
739  114
740  142
741  110
742  101
743  108
744  151
745  134
746  116
747  103
748  124
749  133
750  100
751  120
752  104
753  116
754  109
755  111
756  120
757  117
758  112
759  124
760  99
761  124
762  128
763  112
764  100
765  117
766  97
767  110
768  134
769  110
770  110
771  118
772  128
773  85
774  117
775  105
776  97
777  108
778  93
779  102
780  112
781  125
782  106
783  100
784  96
785  91
786  82
787  105
788  115
789  98
790  112
791  92
792  101
793  97
794  91
795  97
796  98
797  105
798  110
799  114
800  104
801  67
802  103
803  89
804  96
805  89
806  112
807  87
808  96
809  91
810  89
811  85
812  86
813  113
814  92
815  94
816  87
817  110
818  104
819  96
820  96
821  109
822  100
823  82
824  90
825  88
826  73
827  88
828  77
829  88
830  67
831  87
832  99
833  82
834  71
835  73
836  78
837  95
838  81
839  80
840  87
841  73
842  71
843  80
844  67
845  78
846  77
847  84
848  71
849  98
850  73
851  84
852  81
853  66
854  82
855  70
856  84
857  63
858  75
859  66
860  71
861  70
862  68
863  71
864  72
865  59
866  64
867  62
868  79
869  72
870  69
871  62
872  64
873  65
874  66
875  64
876  73
877  51
878  69
879  67
880  72
881  72
882  73
883  78
884  59
885  63
886  57
887  70
888  72
889  55
890  67
891  65
892  71
893  65
894  53
895  71
896  64
897  71
898  58
899  65
900  60
901  59
902  57
903  60
904  61
905  67
906  62
907  51
908  61
909  68
910  60
911  73
912  54
913  63
914  52
915  50
916  68
917  73
918  60
919  55
920  56
921  70
922  60
923  57
924  59
925  59
926  58
927  56
928  63
929  61
930  57
931  58
932  61
933  52
934  62
935  60
936  50
937  62
938  44
939  59
940  55
941  62
942  70
943  53
944  57
945  56
946  59
947  54
948  56
949  54
950  50
951  53
952  39
953  44
954  55
955  56
956  56
957  54
958  55
959  56
960  67
961  67
962  52
963  72
964  64
965  55
966  52
967  50
968  64
969  45
970  58
971  42
972  51
973  49
974  65
975  48
976  52
977  51
978  54
979  66
980  52
981  58
982  62
983  56
984  67
985  72
986  34
987  62
988  53
989  64
990  62
991  48
992  62
993  68
994  61
995  54
996  54
997  58
998  58
999  58
1000  53
1001  51
1002  69
1003  56
1004  50
1005  51
1006  62
1007  51
1008  47
1009  46
1010  63
1011  51
1012  56
1013  46
1014  36
1015  52
1016  56
1017  62
1018  49
1019  50
1020  67
1021  49
1022  56
1023  58
1024  61
1025  46
1026  61
1027  51
1028  53
1029  55
1030  50
1031  44
1032  53
1033  65
1034  54
1035  51
1036  51
1037  59
1038  57
1039  52
1040  39
1041  59
1042  65
1043  59
1044  48
1045  53
1046  59
1047  50
1048  57
1049  58
1050  61
1051  60
1052  59
1053  59
1054  54
1055  46
1056  62
1057  54
1058  49
1059  54
1060  60
1061  50
1062  49
1063  52
1064  47
1065  57
1066  38
1067  52
1068  47
1069  41
1070  52
1071  51
1072  51
1073  60
1074  55
1075  42
1076  50
1077  53
1078  59
1079  58
1080  54
1081  54
1082  53
1083  45
1084  50
1085  43
1086  53
1087  47
1088  47
1089  53
1090  54
1091  52
1092  60
1093  47
1094  52
1095  43
1096  45
1097  44
1098  44
1099  58
1100  41
1101  39
1102  34
1103  47
1104  48
1105  43
1106  38
1107  46
1108  38
1109  54
1110  51
1111  44
1112  39
1113  43
1114  39
1115  39
1116  49
1117  53
1118  40
1119  45
1120  53
1121  53
1122  45
1123  43
1124  43
1125  45
1126  37
1127  49
1128  40
1129  47
1130  52
1131  47
1132  49
1133  48
1134  39
1135  41
1136  42
1137  48
1138  50
1139  43
1140  51
1141  47
1142  53
1143  36
1144  46
1145  40
1146  52
1147  57
1148  54
1149  58
1150  35
1151  58
1152  38
1153  39
1154  50
1155  44
1156  38
1157  44
1158  58
1159  44
1160  46
1161  50
1162  42
1163  54
1164  51
1165  51
1166  43
1167  60
1168  48
1169  48
1170  42
1171  55
1172  47
1173  41
1174  41
1175  66
1176  55
1177  39
1178  38
1179  33
1180  47
1181  46
1182  53
1183  53
1184  48
1185  66
1186  34
1187  42
1188  49
1189  43
1190  49
1191  55
1192  47
1193  57
1194  41
1195  34
1196  34
1197  52
1198  46
1199  52
1200  53
1201  55
1202  57
1203  57
1204  63
1205  57
1206  40
1207  52
1208  40
1209  53
1210  42
1211  43
1212  38
1213  53
1214  51
1215  47
1216  41
1217  52
1218  65
1219  49
1220  54
1221  45
1222  53
1223  51
1224  53
1225  59
1226  74
1227  63
1228  39
1229  48
1230  53
1231  44
1232  45
1233  53
1234  69
1235  57
1236  50
1237  47
1238  42
1239  61
1240  48
1241  47
1242  71
1243  39
1244  63
1245  68
1246  50
1247  54
1248  50
1249  51
1250  57
1251  39
1252  48
1253  43
1254  68
1255  62
1256  48
1257  59
1258  51
1259  53
1260  53
1261  61
1262  53
1263  48
1264  57
1265  64
1266  52
1267  49
1268  63
1269  58
1270  65
1271  42
1272  70
1273  58
1274  63
1275  55
1276  63
1277  60
1278  48
1279  76
1280  48
1281  53
1282  61
1283  46
1284  53
1285  47
1286  54
1287  65
1288  69
1289  63
1290  48
1291  46
1292  54
1293  50
1294  58
1295  59
1296  65
1297  64
1298  52
1299  50
1300  53
1301  56
1302  69
1303  65
1304  64
1305  62
1306  54
1307  48
1308  66
1309  70
1310  69
1311  54
1312  56
1313  57
1314  54
1315  72
1316  61
1317  58
1318  59
1319  72
1320  57
1321  66
1322  64
1323  71
1324  64
1325  63
1326  65
1327  64
1328  56
1329  62
1330  45
1331  65
1332  62
1333  68
1334  68
1335  81
1336  67
1337  69
1338  69
1339  54
1340  60
1341  68
1342  55
1343  73
1344  49
1345  70
1346  80
1347  69
1348  74
1349  67
1350  59
1351  70
1352  73
1353  61
1354  63
1355  53
1356  59
1357  60
1358  69
1359  69
1360  68
1361  65
1362  59
1363  52
1364  68
1365  59
1366  82
1367  74
1368  62
1369  90
1370  66
1371  63
1372  68
1373  62
1374  67
1375  85
1376  79
1377  75
1378  69
1379  63
1380  64
1381  71
1382  58
1383  86
1384  72
1385  64
1386  55
1387  63
1388  61
1389  79
1390  67
1391  76
1392  68
1393  62
1394  75
1395  74
1396  74
1397  67
1398  75
1399  72
1400  66
1401  66
1402  88
1403  73
1404  61
1405  75
1406  76
1407  67
1408  74
1409  66
1410  65
1411  55
1412  65
1413  81
1414  73
1415  55
1416  73
1417  80
1418  62
1419  78
1420  79
1421  70
1422  61
1423  79
1424  79
1425  71
1426  75
1427  78
1428  76
1429  54
1430  60
1431  75
1432  97
1433  73
1434  98
1435  70
1436  73
1437  69
1438  85
1439  67
1440  75
1441  83
1442  94
1443  74
1444  61
1445  80
1446  80
1447  85
1448  61
1449  78
1450  88
1451  73
1452  65
1453  78
1454  61
1455  77
1456  85
1457  71
1458  64
1459  72
1460  69
1461  75
1462  67
1463  87
1464  95
1465  83
1466  72
1467  74
1468  76
1469  73
1470  80
1471  80
1472  72
1473  82
1474  89
1475  76
1476  75
1477  79
1478  85
1479  92
1480  79
1481  77
1482  81
1483  88
1484  81
1485  73
1486  86
1487  90
1488  77
1489  79
1490  78
1491  76
1492  93
1493  97
1494  67
1495  65
1496  93
1497  79
1498  66
1499  84
1500  81
1501  78
1502  95
1503  85
1504  100
1505  94
1506  75
1507  78
1508  88
1509  94
1510  85
1511  108
1512  113
1513  95
1514  73
1515  101
1516  70
1517  104
1518  91
1519  89
1520  89
1521  88
1522  81
1523  91
1524  112
1525  103
1526  93
1527  83
1528  83
1529  91
1530  98
1531  105
1532  84
1533  90
1534  93
1535  108
1536  93
1537  98
1538  112
1539  121
1540  95
1541  109
1542  106
1543  99
1544  91
1545  93
1546  122
1547  104
1548  99
1549  119
1550  123
1551  117
1552  126
1553  111
1554  134
1555  136
1556  125
1557  145
1558  154
1559  160
1560  168
1561  181
1562  199
1563  214
1564  247
1565  286
1566  330
1567  402
1568  436
1569  543
1570  653
1571  828
1572  972
1573  1094
1574  1296
1575  1536
1576  1754
1577  2096
1578  2423
1579  2786
1580  3220
1581  3583
1582  3950
1583  4319
1584  4746
1585  5111
1586  5386
1587  5758
1588  6242
1589  6361
1590  6696
1591  6815
1592  7106
1593  6827
1594  6989
1595  6874
1596  6775
1597  6882
1598  6389
1599  6242
1600  6011
1601  5724
1602  5384
1603  4888
1604  4736
1605  4307
1606  3917
1607  3604
1608  3375
1609  3063
1610  2718
1611  2576
1612  2321
1613  2163
1614  1976
1615  1754
1616  1672
1617  1551
1618  1463
1619  1286
1620  1302
1621  1086
1622  993
1623  957
1624  951
1625  779
1626  824
1627  722
1628  681
1629  654
1630  581
1631  553
1632  500
1633  487
1634  462
1635  496
1636  426
1637  370
1638  333
1639  314
1640  267
1641  240
1642  270
1643  252
1644  240
1645  216
1646  195
1647  190
1648  179
1649  158
1650  164
1651  159
1652  139
1653  127
1654  154
1655  133
1656  131
1657  122
1658  137
1659  90
1660  101
1661  105
1662  110
1663  107
1664  112
1665  110
1666  103
1667  98
1668  100
1669  100
1670  105
1671  107
1672  93
1673  103
1674  103
1675  114
1676  101
1677  111
1678  113
1679  108
1680  124
1681  94
1682  89
1683  123
1684  108
1685  104
1686  119
1687  89
1688  119
1689  106
1690  102
1691  107
1692  101
1693  97
1694  113
1695  95
1696  107
1697  113
1698  116
1699  110
1700  87
1701  102
1702  104
1703  119
1704  110
1705  88
1706  103
1707  109
1708  98
1709  113
1710  86
1711  95
1712  127
1713  112
1714  108
1715  110
1716  111
1717  84
1718  113
1719  109
1720  108
1721  121
1722  116
1723  117
1724  107
1725  88
1726  107
1727  109
1728  99
1729  90
1730  101
1731  102
1732  102
1733  124
1734  113
1735  112
1736  114
1737  116
1738  116
1739  106
1740  88
1741  114
1742  95
1743  102
1744  110
1745  115
1746  105
1747  106
1748  93
1749  112
1750  106
1751  105
1752  116
1753  115
1754  107
1755  100
1756  111
1757  123
1758  104
1759  106
1760  101
1761  84
1762  116
1763  106
1764  115
1765  107
1766  115
1767  106
1768  105
1769  138
1770  126
1771  127
1772  111
1773  125
1774  107
1775  107
1776  105
1777  91
1778  119
1779  116
1780  134
1781  128
1782  125
1783  119
1784  108
1785  122
1786  133
1787  114
1788  106
1789  107
1790  113
1791  104
1792  94
1793  110
1794  105
1795  104
1796  111
1797  131
1798  113
1799  103
1800  111
1801  109
1802  93
1803  121
1804  103
1805  126
1806  98
1807  122
1808  115
1809  128
1810  132
1811  105
1812  133
1813  106
1814  115
1815  103
1816  124
1817  103
1818  118
1819  99
1820  114
1821  123
1822  112
1823  118
1824  97
1825  114
1826  106
1827  117
1828  114
1829  114
1830  113
1831  124
1832  117
1833  117
1834  115
1835  107
1836  122
1837  126
1838  144
1839  126
1840  128
1841  136
1842  101
1843  130
1844  126
1845  144
1846  120
1847  124
1848  121
1849  128
1850  133
1851  126
1852  144
1853  124
1854  127
1855  130
1856  119
1857  123
1858  123
1859  142
1860  117
1861  121
1862  118
1863  127
1864  107
1865  136
1866  125
1867  157
1868  106
1869  136
1870  122
1871  130
1872  116
1873  122
1874  124
1875  126
1876  133
1877  104
1878  127
1879  114
1880  129
1881  130
1882  127
1883  128
1884  126
1885  134
1886  131
1887  139
1888  140
1889  143
1890  97
1891  124
1892  119
1893  113
1894  118
1895  141
1896  111
1897  120
1898  128
1899  132
1900  142
1901  100
1902  119
1903  116
1904  131
1905  133
1906  128
1907  133
1908  112
1909  137
1910  143
1911  128
1912  141
1913  138
1914  125
1915  113
1916  129
1917  135
1918  140
1919  143
1920  123
1921  129
1922  103
1923  110
1924  134
1925  135
1926  138
1927  148
1928  140
1929  143
1930  114
1931  150
1932  130
1933  113
1934  124
1935  106
1936  108
1937  148
1938  118
1939  124
1940  131
1941  131
1942  126
1943  135
1944  119
1945  118
1946  126
1947  149
1948  101
1949  146
1950  154
1951  140
1952  124
1953  115
1954  136
1955  129
1956  134
1957  126
1958  154
1959  143
1960  121
1961  116
1962  145
1963  140
1964  130
1965  109
1966  153
1967  130
1968  130
1969  125
1970  135
1971  123
1972  133
1973  131
1974  137
1975  123
1976  138
1977  145
1978  145
1979  130
1980  127
1981  139
1982  124
1983  156
1984  120
1985  150
1986  132
1987  122
1988  151
1989  120
1990  135
1991  137
1992  135
1993  128
1994  124
1995  143
1996  163
1997  125
1998  141
1999  139
2000  147
2001  111
2002  116
2003  123
2004  123
2005  122
2006  135
2007  115
2008  140
2009  133
2010  125
2011  144
2012  157
2013  148
2014  144
2015  159
2016  136
2017  144
2018  138
2019  133
2020  134
2021  119
2022  134
2023  141
2024  137
2025  140
2026  140
2027  140
2028  138
2029  128
2030  132
2031  141
2032  120
2033  146
2034  138
2035  125
2036  135
2037  141
2038  169
2039  132
2040  121
2041  131
2042  147
2043  154
2044  136
2045  143
2046  145
2047  137
2048  110
2049  157
2050  143
2051  125
2052  126
2053  115
2054  122
2055  128
2056  138
2057  131
2058  125
2059  136
2060  140
2061  129
2062  140
2063  162
2064  148
2065  138
2066  118
2067  161
2068  154
2069  118
2070  161
2071  135
2072  136
2073  143
2074  138
2075  158
2076  147
2077  146
2078  158
2079  159
2080  135
2081  143
2082  122
2083  142
2084  136
2085  136
2086  133
2087  143
2088  134
2089  145
2090  145
2091  152
2092  138
2093  155
2094  124
2095  160
2096  139
2097  137
2098  120
2099  133
2100  129
2101  148
2102  134
2103  151
2104  148
2105  161
2106  122
2107  146
2108  146
2109  164
2110  142
2111  142
2112  164
2113  119
2114  153
2115  147
2116  146
2117  149
2118  163
2119  127
2120  117
2121  149
2122  144
2123  152
2124  140
2125  157
2126  138
2127  143
2128  117
2129  145
2130  127
2131  156
2132  138
2133  126
2134  135
2135  148
2136  153
2137  124
2138  155
2139  162
2140  143
2141  136
2142  158
2143  139
2144  147
2145  139
2146  163
2147  161
2148  138
2149  151
2150  151
2151  156
2152  150
2153  174
2154  162
2155  154
2156  145
2157  136
2158  152
2159  162
2160  178
2161  135
2162  141
2163  148
2164  175
2165  151
2166  134
2167  172
2168  121
2169  173
2170  122
2171  139
2172  160
2173  135
2174  130
2175  138
2176  144
2177  151
2178  150
2179  161
2180  139
2181  167
2182  144
2183  139
2184  145
2185  147
2186  149
2187  157
2188  140
2189  127
2190  174
2191  180
2192  133
2193  125
2194  155
2195  147
2196  179
2197  144
2198  148
2199  135
2200  144
2201  141
2202  152
2203  141
2204  143
2205  151
2206  179
2207  139
2208  147
2209  157
2210  164
2211  153
2212  152
2213  134
2214  162
2215  150
2216  160
2217  152
2218  146
2219  127
2220  166
2221  159
2222  135
2223  159
2224  153
2225  155
2226  169
2227  144
2228  141
2229  138
2230  139
2231  156
2232  132
2233  153
2234  168
2235  139
2236  147
2237  154
2238  157
2239  153
2240  169
2241  185
2242  129
2243  137
2244  147
2245  144
2246  142
2247  141
2248  167
2249  158
2250  161
2251  149
2252  150
2253  148
2254  137
2255  155
2256  123
2257  159
2258  157
2259  158
2260  165
2261  132
2262  141
2263  194
2264  164
2265  132
2266  146
2267  170
2268  147
2269  164
2270  155
2271  157
2272  146
2273  153
2274  135
2275  160
2276  161
2277  165
2278  181
2279  169
2280  150
2281  151
2282  131
2283  142
2284  151
2285  169
2286  141
2287  146
2288  156
2289  153
2290  136
2291  135
2292  169
2293  139
2294  156
2295  145
2296  150
2297  143
2298  175
2299  158
2300  172
2301  157
2302  160
2303  169
2304  152
2305  148
2306  152
2307  152
2308  141
2309  147
2310  142
2311  138
2312  160
2313  159
2314  150
2315  136
2316  139
2317  140
2318  131
2319  146
2320  147
2321  171
2322  160
2323  155
2324  156
2325  157
2326  134
2327  157
2328  170
2329  154
2330  150
2331  147
2332  164
2333  152
2334  166
2335  148
2336  147
2337  167
2338  170
2339  160
2340  131
2341  162
2342  157
2343  155
2344  142
2345  168
2346  137
2347  146
2348  151
2349  165
2350  140
2351  154
2352  143
2353  144
2354  166
2355  156
2356  178
2357  136
2358  154
2359  150
2360  166
2361  131
2362  125
2363  166
2364  150
2365  140
2366  132
2367  140
2368  173
2369  175
2370  147
2371  147
2372  162
2373  138
2374  150
2375  167
2376  149
2377  143
2378  146
2379  151
2380  156
2381  159
2382  150
2383  149
2384  147
2385  154
2386  137
2387  168
2388  145
2389  124
2390  133
2391  154
2392  130
2393  137
2394  161
2395  154
2396  158
2397  134
2398  142
2399  144
2400  149
2401  137
2402  142
2403  149
2404  132
2405  136
2406  158
2407  165
2408  157
2409  134
2410  144
2411  136
2412  142
2413  155
2414  149
2415  144
2416  164
2417  149
2418  113
2419  144
2420  148
2421  149
2422  143
2423  156
2424  163
2425  155
2426  157
2427  124
2428  159
2429  164
2430  133
2431  127
2432  142
2433  158
2434  146
2435  166
2436  152
2437  144
2438  143
2439  152
2440  163
2441  150
2442  162
2443  131
2444  150
2445  140
2446  152
2447  147
2448  144
2449  156
2450  141
2451  139
2452  136
2453  142
2454  148
2455  144
2456  136
2457  137
2458  156
2459  129
2460  144
2461  140
2462  136
2463  145
2464  131
2465  153
2466  150
2467  162
2468  141
2469  144
2470  138
2471  158
2472  140
2473  131
2474  132
2475  156
2476  134
2477  143
2478  165
2479  156
2480  126
2481  156
2482  133
2483  134
2484  142
2485  145
2486  150
2487  147
2488  164
2489  136
2490  140
2491  128
2492  125
2493  139
2494  127
2495  132
2496  140
2497  145
2498  127
2499  133
2500  145
2501  147
2502  120
2503  133
2504  138
2505  134
2506  132
2507  135
2508  149
2509  136
2510  121
2511  134
2512  136
2513  133
2514  153
2515  137
2516  133
2517  133
2518  126
2519  130
2520  123
2521  134
2522  109
2523  133
2524  149
2525  123
2526  117
2527  149
2528  143
2529  123
2530  141
2531  153
2532  141
2533  112
2534  133
2535  126
2536  154
2537  145
2538  106
2539  130
2540  130
2541  127
2542  128
2543  139
2544  103
2545  138
2546  149
2547  125
2548  130
2549  124
2550  114
2551  143
2552  109
2553  121
2554  121
2555  136
2556  111
2557  138
2558  136
2559  118
2560  136
2561  136
2562  140
2563  125
2564  115
2565  128
2566  136
2567  126
2568  121
2569  127
2570  142
2571  130
2572  155
2573  117
2574  124
2575  123
2576  115
2577  110
2578  122
2579  122
2580  121
2581  135
2582  114
2583  117
2584  123
2585  118
2586  141
2587  112
2588  126
2589  130
2590  116
2591  117
2592  114
2593  125
2594  125
2595  109
2596  125
2597  129
2598  125
2599  120
2600  111
2601  107
2602  136
2603  142
2604  103
2605  125
2606  119
2607  103
2608  109
2609  114
2610  117
2611  108
2612  117
2613  110
2614  108
2615  119
2616  114
2617  108
2618  116
2619  138
2620  103
2621  125
2622  114
2623  108
2624  93
2625  91
2626  100
2627  101
2628  114
2629  124
2630  121
2631  102
2632  102
2633  99
2634  110
2635  118
2636  104
2637  105
2638  114
2639  100
2640  113
2641  100
2642  98
2643  114
2644  112
2645  94
2646  111
2647  92
2648  124
2649  103
2650  114
2651  99
2652  103
2653  107
2654  112
2655  103
2656  115
2657  94
2658  87
2659  109
2660  105
2661  90
2662  98
2663  113
2664  99
2665  89
2666  93
2667  115
2668  92
2669  109
2670  102
2671  124
2672  102
2673  101
2674  93
2675  96
2676  88
2677  103
2678  88
2679  90
2680  95
2681  92
2682  95
2683  106
2684  90
2685  99
2686  94
2687  99
2688  98
2689  89
2690  93
2691  100
2692  80
2693  99
2694  90
2695  92
2696  85
2697  93
2698  89
2699  96
2700  94
2701  108
2702  93
2703  93
2704  98
2705  86
2706  85
2707  81
2708  89
2709  96
2710  105
2711  96
2712  94
2713  91
2714  81
2715  82
2716  93
2717  96
2718  71
2719  76
2720  94
2721  80
2722  67
2723  89
2724  82
2725  72
2726  78
2727  82
2728  67
2729  82
2730  77
2731  91
2732  75
2733  82
2734  70
2735  71
2736  73
2737  66
2738  81
2739  76
2740  71
2741  71
2742  72
2743  75
2744  82
2745  76
2746  75
2747  80
2748  80
2749  65
2750  72
2751  68
2752  75
2753  66
2754  62
2755  67
2756  63
2757  81
2758  59
2759  62
2760  89
2761  62
2762  70
2763  68
2764  71
2765  85
2766  75
2767  70
2768  53
2769  65
2770  66
2771  59
2772  78
2773  57
2774  67
2775  70
2776  70
2777  58
2778  64
2779  55
2780  59
2781  56
2782  66
2783  59
2784  58
2785  61
2786  57
2787  64
2788  67
2789  68
2790  50
2791  63
2792  60
2793  54
2794  52
2795  61
2796  65
2797  63
2798  63
2799  80
2800  71
2801  63
2802  68
2803  59
2804  59
2805  58
2806  53
2807  49
2808  64
2809  62
2810  51
2811  65
2812  51
2813  44
2814  60
2815  57
2816  49
2817  62
2818  62
2819  58
2820  59
2821  62
2822  54
2823  50
2824  51
2825  66
2826  73
2827  50
2828  55
2829  54
2830  42
2831  45
2832  59
2833  48
2834  53
2835  60
2836  52
2837  51
2838  51
2839  63
2840  62
2841  70
2842  66
2843  49
2844  46
2845  59
2846  49
2847  60
2848  59
2849  46
2850  55
2851  67
2852  54
2853  47
2854  51
2855  61
2856  57
2857  48
2858  53
2859  67
2860  53
2861  47
2862  58
2863  56
2864  57
2865  48
2866  62
2867  61
2868  55
2869  58
2870  52
2871  51
2872  56
2873  66
2874  44
2875  59
2876  58
2877  44
2878  57
2879  56
2880  57
2881  59
2882  53
2883  55
2884  47
2885  35
2886  44
2887  50
2888  54
2889  59
2890  56
2891  51
2892  56
2893  58
2894  67
2895  51
2896  66
2897  59
2898  39
2899  50
2900  51
2901  55
2902  49
2903  50
2904  46
2905  74
2906  57
2907  48
2908  55
2909  59
2910  56
2911  68
2912  71
2913  55
2914  67
2915  61
2916  51
2917  52
2918  66
2919  64
2920  56
2921  50
2922  59
2923  57
2924  64
2925  59
2926  59
2927  71
2928  60
2929  42
2930  64
2931  61
2932  50
2933  48
2934  50
2935  64
2936  65
2937  53
2938  46
2939  67
2940  46
2941  44
2942  54
2943  60
2944  46
2945  59
2946  52
2947  57
2948  84
2949  56
2950  53
2951  43
2952  62
2953  61
2954  58
2955  39
2956  37
2957  50
2958  40
2959  63
2960  54
2961  53
2962  50
2963  47
2964  44
2965  38
2966  45
2967  39
2968  41
2969  40
2970  49
2971  52
2972  43
2973  54
2974  53
2975  57
2976  50
2977  52
2978  47
2979  49
2980  50
2981  53
2982  42
2983  51
2984  52
2985  33
2986  39
2987  45
2988  48
2989  47
2990  38
2991  35
2992  41
2993  45
2994  43
2995  48
2996  50
2997  44
2998  38
2999  50
3000  41
3001  51
3002  46
3003  47
3004  30
3005  44
3006  54
3007  48
3008  57
3009  49
3010  49
3011  41
3012  36
3013  45
3014  38
3015  45
3016  50
3017  47
3018  46
3019  42
3020  48
3021  50
3022  47
3023  38
3024  47
3025  51
3026  48
3027  46
3028  38
3029  57
3030  56
3031  39
3032  45
3033  52
3034  46
3035  50
3036  47
3037  35
3038  43
3039  46
3040  54
3041  43
3042  46
3043  45
3044  56
3045  60
3046  52
3047  48
3048  53
3049  37
3050  48
3051  27
3052  53
3053  44
3054  52
3055  65
3056  49
3057  45
3058  44
3059  40
3060  51
3061  57
3062  61
3063  61
3064  50
3065  54
3066  51
3067  79
3068  48
3069  50
3070  50
3071  29
3072  37
3073  45
3074  58
3075  59
3076  50
3077  56
3078  46
3079  43
3080  46
3081  51
3082  56
3083  51
3084  51
3085  50
3086  48
3087  38
3088  47
3089  46
3090  51
3091  52
3092  54
3093  59
3094  54
3095  56
3096  48
3097  53
3098  61
3099  63
3100  51
3101  62
3102  52
3103  51
3104  49
3105  56
3106  51
3107  53
3108  61
3109  50
3110  44
3111  49
3112  54
3113  53
3114  69
3115  60
3116  48
3117  53
3118  56
3119  56
3120  50
3121  48
3122  53
3123  54
3124  57
3125  50
3126  48
3127  46
3128  52
3129  44
3130  56
3131  53
3132  48
3133  69
3134  56
3135  55
3136  46
3137  45
3138  63
3139  40
3140  43
3141  69
3142  50
3143  46
3144  67
3145  43
3146  56
3147  55
3148  43
3149  57
3150  46
3151  38
3152  66
3153  56
3154  46
3155  55
3156  53
3157  55
3158  55
3159  60
3160  51
3161  63
3162  57
3163  57
3164  42
3165  41
3166  59
3167  51
3168  53
3169  59
3170  61
3171  64
3172  57
3173  44
3174  58
3175  62
3176  56
3177  60
3178  51
3179  74
3180  64
3181  69
3182  44
3183  64
3184  70
3185  59
3186  77
3187  51
3188  52
3189  44
3190  51
3191  42
3192  63
3193  75
3194  62
3195  61
3196  62
3197  63
3198  59
3199  67
3200  61
3201  69
3202  53
3203  58
3204  58
3205  54
3206  68
3207  52
3208  56
3209  64
3210  74
3211  55
3212  59
3213  53
3214  71
3215  69
3216  66
3217  57
3218  60
3219  61
3220  56
3221  72
3222  68
3223  57
3224  48
3225  84
3226  69
3227  61
3228  63
3229  66
3230  62
3231  69
3232  37
3233  62
3234  63
3235  70
3236  62
3237  70
3238  70
3239  61
3240  64
3241  66
3242  58
3243  59
3244  64
3245  86
3246  57
3247  68
3248  58
3249  76
3250  55
3251  70
3252  61
3253  64
3254  70
3255  42
3256  57
3257  61
3258  72
3259  69
3260  74
3261  59
3262  68
3263  53
3264  72
3265  70
3266  80
3267  74
3268  70
3269  59
3270  73
3271  58
3272  66
3273  83
3274  66
3275  62
3276  63
3277  66
3278  71
3279  70
3280  72
3281  72
3282  61
3283  69
3284  52
3285  60
3286  65
3287  75
3288  61
3289  74
3290  65
3291  64
3292  68
3293  82
3294  56
3295  70
3296  64
3297  62
3298  75
3299  82
3300  74
3301  63
3302  82
3303  61
3304  60
3305  65
3306  72
3307  76
3308  59
3309  74
3310  70
3311  69
3312  80
3313  70
3314  72
3315  83
3316  54
3317  76
3318  78
3319  66
3320  94
3321  75
3322  86
3323  78
3324  68
3325  66
3326  61
3327  55
3328  72
3329  57
3330  75
3331  77
3332  69
3333  67
3334  69
3335  71
3336  72
3337  62
3338  65
3339  81
3340  71
3341  66
3342  76
3343  79
3344  77
3345  77
3346  73
3347  77
3348  89
3349  62
3350  80
3351  82
3352  69
3353  83
3354  77
3355  81
3356  87
3357  71
3358  78
3359  92
3360  59
3361  79
3362  77
3363  78
3364  82
3365  76
3366  71
3367  81
3368  81
3369  76
3370  62
3371  82
3372  71
3373  86
3374  79
3375  88
3376  92
3377  97
3378  85
3379  83
3380  105
3381  73
3382  78
3383  101
3384  78
3385  76
3386  95
3387  78
3388  69
3389  85
3390  77
3391  81
3392  95
3393  78
3394  75
3395  109
3396  87
3397  96
3398  76
3399  104
3400  80
3401  92
3402  82
3403  93
3404  105
3405  78
3406  82
3407  101
3408  88
3409  90
3410  99
3411  97
3412  82
3413  107
3414  104
3415  98
3416  101
3417  103
3418  93
3419  104
3420  111
3421  99
3422  97
3423  100
3424  117
3425  100
3426  101
3427  116
3428  103
3429  114
3430  125
3431  124
3432  112
3433  134
3434  116
3435  141
3436  126
3437  127
3438  141
3439  142
3440  120
3441  154
3442  163
3443  181
3444  217
3445  231
3446  256
3447  342
3448  350
3449  397
3450  501
3451  612
3452  703
3453  888
3454  1030
3455  1228
3456  1391
3457  1618
3458  1888
3459  2217
3460  2480
3461  2818
3462  3214
3463  3594
3464  4054
3465  4398
3466  4810
3467  5196
3468  5579
3469  5905
3470  6237
3471  6548
3472  6795
3473  6756
3474  6802
3475  6951
3476  6918
3477  6847
3478  6734
3479  6482
3480  6336
3481  5893
3482  5616
3483  5516
3484  5123
3485  4829
3486  4471
3487  4153
3488  3817
3489  3508
3490  3208
3491  3009
3492  2626
3493  2460
3494  2181
3495  2000
3496  1915
3497  1728
3498  1558
3499  1428
3500  1305
3501  1249
3502  1133
3503  1098
3504  972
3505  953
3506  852
3507  757
3508  737
3509  715
3510  639
3511  594
3512  572
3513  563
3514  466
3515  449
3516  418
3517  396
3518  400
3519  339
3520  334
3521  305
3522  317
3523  283
3524  256
3525  246
3526  209
3527  204
3528  200
3529  185
3530  167
3531  173
3532  142
3533  145
3534  143
3535  139
3536  151
3537  124
3538  118
3539  124
3540  125
3541  102
3542  123
3543  133
3544  112
3545  118
3546  102
3547  110
3548  129
3549  92
3550  106
3551  139
3552  100
3553  100
3554  106
3555  114
3556  116
3557  101
3558  101
3559  114
3560  106
3561  98
3562  98
3563  96
3564  106
3565  93
3566  110
3567  97
3568  106
3569  96
3570  114
3571  110
3572  92
3573  88
3574  90
3575  92
3576  93
3577  108
3578  88
3579  118
3580  102
3581  119
3582  101
3583  106
3584  95
3585  107
3586  94
3587  104
3588  91
3589  103
3590  108
3591  111
3592  94
3593  103
3594  108
3595  109
3596  119
3597  114
3598  92
3599  106
3600  103
3601  111
3602  105
3603  94
3604  102
3605  104
3606  106
3607  116
3608  105
3609  115
3610  108
3611  109
3612  95
3613  115
3614  119
3615  108
3616  115
3617  86
3618  107
3619  115
3620  106
3621  94
3622  102
3623  102
3624  121
3625  102
3626  111
3627  113
3628  105
3629  107
3630  114
3631  110
3632  100
3633  100
3634  114
3635  114
3636  115
3637  119
3638  96
3639  105
3640  99
3641  133
3642  111
3643  112
3644  114
3645  93
3646  99
3647  93
3648  106
3649  114
3650  110
3651  94
3652  120
3653  124
3654  123
3655  109
3656  110
3657  129
3658  120
3659  108
3660  98
3661  119
3662  109
3663  108
3664  114
3665  103
3666  141
3667  89
3668  114
3669  112
3670  89
3671  112
3672  118
3673  105
3674  99
3675  129
3676  101
3677  84
3678  119
3679  116
3680  103
3681  121
3682  124
3683  122
3684  106
3685  111
3686  112
3687  123
3688  120
3689  109
3690  130
3691  125
3692  130
3693  126
3694  104
3695  103
3696  99
3697  130
3698  128
3699  136
3700  120
3701  104
3702  110
3703  131
3704  111
3705  106
3706  117
3707  100
3708  120
3709  107
3710  95
3711  127
3712  106
3713  111
3714  102
3715  124
3716  116
3717  136
3718  114
3719  126
3720  120
3721  110
3722  135
3723  117
3724  111
3725  121
3726  121
3727  124
3728  129
3729  131
3730  145
3731  125
3732  129
3733  113
3734  140
3735  112
3736  128
3737  117
3738  128
3739  109
3740  146
3741  131
3742  129
3743  148
3744  128
3745  106
3746  133
3747  122
3748  128
3749  152
3750  137
3751  129
3752  124
3753  110
3754  119
3755  137
3756  122
3757  140
3758  137
3759  116
3760  117
3761  119
3762  116
3763  136
3764  121
3765  121
3766  127
3767  132
3768  137
3769  121
3770  125
3771  117
3772  123
3773  108
3774  115
3775  124
3776  133
3777  125
3778  120
3779  129
3780  136
3781  132
3782  124
3783  124
3784  125
3785  141
3786  144
3787  138
3788  139
3789  132
3790  135
3791  121
3792  109
3793  127
3794  127
3795  123
3796  126
3797  138
3798  138
3799  121
3800  118
3801  137
3802  134
3803  135
3804  112
3805  127
3806  117
3807  136
3808  140
3809  118
3810  139
3811  111
3812  126
3813  126
3814  134
3815  138
3816  124
3817  119
3818  135
3819  146
3820  154
3821  140
3822  125
3823  133
3824  122
3825  134
3826  112
3827  125
3828  125
3829  132
3830  126
3831  119
3832  125
3833  122
3834  135
3835  109
3836  150
3837  144
3838  127
3839  125
3840  0
3841  0
3842  0
3843  0
3844  0
3845  0
3846  0
3847  0
3848  0
3849  0
3850  0
3851  0
3852  0
3853  0
3854  0
3855  0
3856  0
3857  0
3858  0
3859  0
3860  0
3861  0
3862  0
3863  0
3864  0
3865  0
3866  0
3867  0
3868  0
3869  0
3870  0
3871  0
3872  0
3873  0
3874  0
3875  0
3876  0
3877  0
3878  0
3879  0
3880  0
3881  0
3882  0
3883  0
3884  0
3885  0
3886  0
3887  0
3888  0
3889  0
3890  0
3891  0
3892  0
3893  0
3894  0
3895  0
3896  0
3897  0
3898  0
3899  0
3900  0
3901  0
3902  0
3903  0
3904  0
3905  0
3906  0
3907  0
3908  0
3909  0
3910  0
3911  0
3912  0
3913  0
3914  0
3915  0
3916  0
3917  0
3918  0
3919  0
3920  0
3921  0
3922  0
3923  0
3924  0
3925  0
3926  0
3927  0
3928  0
3929  0
3930  0
3931  0
3932  0
3933  0
3934  0
3935  0
3936  0
3937  0
3938  0
3939  0
3940  0
3941  0
3942  0
3943  0
3944  0
3945  0
3946  0
3947  0
3948  0
3949  0
3950  0
3951  0
3952  0
3953  0
3954  0
3955  0
3956  0
3957  0
3958  0
3959  0
3960  0
3961  0
3962  0
3963  0
3964  0
3965  0
3966  0
3967  0
3968  0
3969  0
3970  0
3971  0
3972  0
3973  0
3974  0
3975  0
3976  0
3977  0
3978  0
3979  0
3980  0
3981  0
3982  0
3983  0
3984  0
3985  0
3986  0
3987  0
3988  0
3989  0
3990  0
3991  0
3992  0
3993  0
3994  0
3995  0
3996  0
3997  0
3998  0
3999  0
4000  0
4001  0
4002  0
4003  0
4004  0
4005  0
4006  0
4007  0
4008  0
4009  0
4010  0
4011  0
4012  0
4013  0
4014  0
4015  0
4016  0
4017  0
4018  0
4019  0
4020  0
4021  0
4022  0
4023  0
4024  0
4025  0
4026  0
4027  0
4028  0
4029  0
4030  0
4031  0
4032  0
4033  0
4034  0
4035  0
4036  0
4037  0
4038  0
4039  0
4040  0
4041  0
4042  0
4043  0
4044  0
4045  0
4046  0
4047  0
4048  0
4049  0
4050  0
4051  0
4052  0
4053  0
4054  0
4055  0
4056  0
4057  0
4058  0
4059  0
4060  0
4061  0
4062  0
4063  0
4064  0
4065  0
4066  0
4067  0
4068  0
4069  0
4070  0
4071  0
4072  0
4073  0
4074  0
4075  0
4076  0
4077  0
4078  0
4079  0
4080  0
4081  0
4082  0
4083  0
4084  0
4085  0
4086  0
4087  0
4088  0
4089  0
4090  0
4091  0
4092  0
4093  0
4094  0
4095  0
