0  0
1  0
2  0
3  0
4  0
5  0
6  0
7  0
8  0
9  0
10  0
11  0
12  0
13  0
14  0
15  0
16  0
17  0
18  0
19  0
20  0
21  0
22  0
23  0
24  0
25  0
26  0
27  0
28  0
29  0
30  0
31  0
32  0
33  0
34  0
35  0
36  0
37  0
38  0
39  0
40  0
41  0
42  0
43  0
44  0
45  0
46  0
47  0
48  0
49  0
50  0
51  0
52  0
53  0
54  0
55  0
56  0
57  0
58  0
59  0
60  0
61  0
62  0
63  0
64  0
65  0
66  0
67  0
68  0
69  0
70  0
71  0
72  0
73  0
74  0
75  0
76  0
77  0
78  0
79  0
80  0
81  0
82  0
83  0
84  0
85  0
86  0
87  0
88  0
89  0
90  0
91  0
92  0
93  0
94  0
95  0
96  0
97  0
98  0
99  0
100  0
101  0
102  0
103  0
104  0
105  0
106  0
107  0
108  0
109  0
110  0
111  0
112  0
113  0
114  0
115  0
116  0
117  0
118  0
119  0
120  0
121  0
122  0
123  0
124  0
125  0
126  0
127  0
128  0
129  0
130  0
131  0
132  0
133  0
134  0
135  0
136  0
137  0
138  0
139  0
140  0
141  0
142  0
143  0
144  0
145  0
146  0
147  0
148  0
149  0
150  0
151  0
152  0
153  0
154  0
155  0
156  0
157  0
158  0
159  0
160  0
161  0
162  0
163  0
164  0
165  0
166  0
167  0
168  0
169  0
170  0
171  0
172  0
173  0
174  0
175  0
176  0
177  0
178  0
179  0
180  0
181  0
182  0
183  0
184  0
185  0
186  0
187  0
188  0
189  0
190  0
191  0
192  0
193  0
194  0
195  0
196  0
197  0
198  0
199  0
200  0
201  0
202  0
203  0
204  0
205  0
206  0
207  0
208  0
209  0
210  0
211  0
212  0
213  0
214  0
215  0
216  0
217  0
218  0
219  0
220  0
221  0
222  0
223  0
224  0
225  0
226  0
227  0
228  0
229  0
230  0
231  0
232  0
233  0
234  0
235  0
236  0
237  0
238  0
239  0
240  0
241  0
242  0
243  0
244  0
245  0
246  0
247  0
248  0
249  0
250  0
251  0
252  0
253  0
254  0
255  0
256  0
257  0
258  0
259  0
260  0
261  0
262  0
263  0
264  0
265  0
266  0
267  0
268  0
269  0
270  0
271  0
272  0
273  0
274  0
275  0
276  0
277  0
278  0
279  0
280  0
281  0
282  0
283  0
284  0
285  0
286  0
287  0
288  0
289  0
290  0
291  0
292  0
293  0
294  0
295  0
296  0
297  0
298  0
299  0
300  0
301  0
302  0
303  0
304  0
305  0
306  0
307  0
308  0
309  0
310  0
311  0
312  0
313  0
314  0
315  0
316  0
317  0
318  0
319  0
320  0
321  0
322  0
323  0
324  0
325  0
326  0
327  0
328  0
329  0
330  0
331  0
332  0
333  0
334  0
335  0
336  0
337  0
338  0
339  0
340  0
341  0
342  0
343  0
344  0
345  0
346  0
347  0
348  0
349  0
350  0
351  0
352  0
353  0
354  0
355  0
356  0
357  0
358  0
359  0
360  0
361  0
362  0
363  0
364  0
365  0
366  0
367  0
368  0
369  0
370  0
371  0
372  0
373  0
374  0
375  0
376  0
377  0
378  0
379  0
380  0
381  0
382  0
383  0
384  0
385  0
386  0
387  0
388  0
389  0
390  0
391  0
392  0
393  0
394  0
395  0
396  0
397  0
398  0
399  0
400  0
401  0
402  0
403  0
404  0
405  0
406  0
407  0
408  0
409  0
410  0
411  0
412  0
413  0
414  0
415  0
416  0
417  0
418  0
419  0
420  0
421  0
422  0
423  0
424  0
425  0
426  0
427  0
428  0
429  0
430  0
431  0
432  0
433  0
434  0
435  0
436  0
437  0
438  0
439  0
440  0
441  0
442  0
443  0
444  0
445  0
446  0
447  0
448  0
449  0
450  0
451  0
452  0
453  0
454  0
455  0
456  0
457  0
458  0
459  0
460  0
461  0
462  0
463  0
464  0
465  0
466  0
467  0
468  0
469  0
470  0
471  0
472  0
473  0
474  0
475  0
476  0
477  0
478  0
479  0
480  0
481  0
482  0
483  0
484  0
485  0
486  0
487  0
488  0
489  0
490  0
491  0
492  0
493  0
494  0
495  0
496  0
497  0
498  0
499  0
500  0
501  0
502  0
503  0
504  0
505  0
506  0
507  0
508  0
509  0
510  0
511  0
512  0
513  0
514  0
515  0
516  0
517  0
518  0
519  0
520  0
521  0
522  0
523  0
524  0
525  0
526  0
527  0
528  0
529  0
530  0
531  0
532  0
533  0
534  0
535  0
536  0
537  0
538  0
539  0
540  0
541  0
542  0
543  0
544  0
545  0
546  0
547  0
548  0
549  0
550  0
551  0
552  0
553  0
554  0
555  0
556  0
557  0
558  0
559  0
560  0
561  0
562  0
563  0
564  0
565  0
566  0
567  0
568  0
569  0
570  0
571  0
572  0
573  0
574  0
575  0
576  0
577  0
578  0
579  0
580  0
581  0
582  0
583  0
584  0
585  0
586  0
587  0
588  0
589  0
590  0
591  0
592  0
593  0
594  0
595  0
596  0
597  0
598  0
599  0
600  0
601  0
602  0
603  0
604  0
605  0
606  0
607  0
608  0
609  0
610  0
611  0
612  0
613  0
614  0
615  0
616  0
617  0
618  0
619  0
620  0
621  0
622  0
623  0
624  0
625  0
626  0
627  0
628  0
629  0
630  0
631  0
632  0
633  0
634  0
635  0
636  0
637  0
638  0
639  0
640  0
641  0
642  0
643  0
644  0
645  0
646  0
647  0
648  0
649  0
650  0
651  0
652  0
653  0
654  0
655  0
656  0
657  0
658  0
659  0
660  0
661  0
662  0
663  0
664  0
665  0
666  0
667  0
668  0
669  0
670  0
671  0
672  0
673  0
674  0
675  0
676  0
677  0
678  0
679  0
680  0
681  0
682  0
683  0
684  0
685  0
686  0
687  0
688  0
689  0
690  0
691  0
692  0
693  0
694  0
695  0
696  0
697  0
698  0
699  0
700  0
701  0
702  0
703  0
704  0
705  0
706  0
707  0
708  0
709  0
710  0
711  0
712  0
713  0
714  0
715  0
716  0
717  0
718  0
719  0
720  0
721  0
722  0
723  0
724  0
725  0
726  0
727  0
728  0
729  0
730  0
731  0
732  0
733  0
734  0
735  0
736  0
737  0
738  0
739  0
740  0
741  0
742  0
743  0
744  0
745  0
746  0
747  0
748  0
749  0
750  0
751  0
752  0
753  0
754  0
755  0
756  0
757  0
758  0
759  0
760  0
761  0
762  0
763  0
764  0
765  0
766  0
767  0
768  0
769  0
770  0
771  0
772  0
773  0
774  0
775  0
776  0
777  0
778  0
779  0
780  0
781  0
782  0
783  0
784  0
785  0
786  0
787  0
788  0
789  0
790  0
791  0
792  0
793  0
794  0
795  0
796  0
797  0
798  0
799  0
800  0
801  0
802  0
803  0
804  0
805  0
806  0
807  0
808  0
809  0
810  0
811  0
812  0
813  0
814  0
815  0
816  0
817  0
818  0
819  0
820  0
821  0
822  0
823  0
824  0
825  0
826  0
827  0
828  0
829  0
830  0
831  0
832  0
833  0
834  0
835  0
836  0
837  0
838  0
839  0
840  0
841  0
842  0
843  0
844  0
845  0
846  0
847  0
848  0
849  0
850  0
851  0
852  0
853  0
854  0
855  0
856  0
857  0
858  0
859  0
860  0
861  0
862  0
863  0
864  0
865  0
866  0
867  0
868  0
869  0
870  0
871  0
872  0
873  0
874  0
875  0
876  0
877  0
878  0
879  0
880  0
881  0
882  0
883  0
884  0
885  0
886  0
887  0
888  0
889  0
890  0
891  0
892  0
893  0
894  0
895  0
896  0
897  0
898  0
899  0
900  0
901  0
902  0
903  0
904  0
905  0
906  0
907  0
908  0
909  0
910  0
911  0
912  0
913  0
914  0
915  0
916  0
917  0
918  0
919  0
920  0
921  0
922  0
923  0
924  0
925  0
926  0
927  0
928  0
929  0
930  0
931  0
932  0
933  0
934  0
935  0
936  0
937  0
938  0
939  0
940  0
941  0
942  0
943  0
944  0
945  0
946  0
947  0
948  0
949  0
950  0
951  0
952  0
953  0
954  0
955  0
956  0
957  0
958  0
959  0
960  0
961  0
962  0
963  0
964  0
965  0
966  0
967  0
968  0
969  0
970  0
971  0
972  0
973  0
974  0
975  0
976  0
977  0
978  0
979  0
980  0
981  0
982  0
983  0
984  0
985  0
986  0
987  0
988  0
989  0
990  0
991  0
992  0
993  0
994  0
995  0
996  0
997  0
998  0
999  0
1000  0
1001  0
1002  0
1003  0
1004  0
1005  0
1006  0
1007  0
1008  0
1009  0
1010  0
1011  0
1012  0
1013  0
1014  0
1015  0
1016  0
1017  0
1018  0
1019  0
1020  0
1021  0
1022  0
1023  0
1024  0
1025  0
1026  0
1027  0
1028  0
1029  0
1030  0
1031  0
1032  0
1033  0
1034  0
1035  0
1036  0
1037  0
1038  0
1039  0
1040  0
1041  0
1042  0
1043  0
1044  0
1045  0
1046  0
1047  0
1048  0
1049  0
1050  0
1051  0
1052  0
1053  0
1054  0
1055  0
1056  0
1057  0
1058  0
1059  0
1060  0
1061  0
1062  0
1063  0
1064  0
1065  0
1066  0
1067  0
1068  0
1069  0
1070  0
1071  0
1072  0
1073  0
1074  0
1075  0
1076  0
1077  0
1078  0
1079  0
1080  0
1081  0
1082  0
1083  0
1084  0
1085  0
1086  0
1087  0
1088  0
1089  0
1090  0
1091  0
1092  0
1093  0
1094  0
1095  0
1096  0
1097  0
1098  0
1099  0
1100  0
1101  0
1102  0
1103  0
1104  0
1105  0
1106  0
1107  0
1108  0
1109  0
1110  0
1111  0
1112  0
1113  0
1114  0
1115  0
1116  0
1117  0
1118  0
1119  0
1120  0
1121  0
1122  0
1123  0
1124  0
1125  0
1126  0
1127  0
1128  0
1129  0
1130  0
1131  0
1132  0
1133  0
1134  0
1135  0
1136  0
1137  0
1138  0
1139  0
1140  0
1141  0
1142  0
1143  0
1144  0
1145  0
1146  0
1147  0
1148  0
1149  0
1150  0
1151  0
1152  0
1153  0
1154  0
1155  0
1156  0
1157  0
1158  0
1159  0
1160  0
1161  0
1162  0
1163  0
1164  0
1165  0
1166  0
1167  0
1168  0
1169  0
1170  0
1171  0
1172  0
1173  0
1174  0
1175  0
1176  0
1177  0
1178  0
1179  0
1180  0
1181  0
1182  0
1183  0
1184  0
1185  0
1186  0
1187  0
1188  0
1189  0
1190  0
1191  0
1192  0
1193  0
1194  0
1195  0
1196  0
1197  0
1198  0
1199  0
1200  0
1201  0
1202  0
1203  0
1204  0
1205  0
1206  0
1207  0
1208  0
1209  0
1210  0
1211  0
1212  0
1213  0
1214  0
1215  0
1216  0
1217  0
1218  0
1219  0
1220  0
1221  0
1222  0
1223  0
1224  0
1225  0
1226  0
1227  0
1228  0
1229  0
1230  0
1231  0
1232  0
1233  0
1234  0
1235  0
1236  0
1237  0
1238  0
1239  0
1240  0
1241  0
1242  0
1243  0
1244  0
1245  0
1246  0
1247  0
1248  0
1249  0
1250  0
1251  0
1252  0
1253  0
1254  0
1255  0
1256  0
1257  0
1258  0
1259  0
1260  0
1261  0
1262  0
1263  0
1264  0
1265  0
1266  0
1267  0
1268  0
1269  0
1270  0
1271  0
1272  0
1273  0
1274  0
1275  0
1276  0
1277  0
1278  0
1279  0
1280  0
1281  0
1282  0
1283  0
1284  0
1285  0
1286  0
1287  0
1288  0
1289  0
1290  0
1291  0
1292  0
1293  0
1294  0
1295  0
1296  0
1297  0
1298  0
1299  0
1300  0
1301  0
1302  0
1303  0
1304  0
1305  0
1306  0
1307  0
1308  0
1309  0
1310  0
1311  0
1312  0
1313  0
1314  0
1315  0
1316  0
1317  0
1318  0
1319  0
1320  0
1321  0
1322  0
1323  0
1324  0
1325  0
1326  0
1327  0
1328  0
1329  0
1330  0
1331  0
1332  0
1333  0
1334  0
1335  0
1336  0
1337  0
1338  0
1339  0
1340  0
1341  0
1342  0
1343  0
1344  0
1345  0
1346  0
1347  0
1348  0
1349  0
1350  0
1351  0
1352  0
1353  0
1354  0
1355  0
1356  0
1357  0
1358  0
1359  0
1360  0
1361  0
1362  0
1363  0
1364  0
1365  0
1366  0
1367  0
1368  0
1369  0
1370  0
1371  0
1372  0
1373  0
1374  0
1375  0
1376  0
1377  0
1378  0
1379  0
1380  0
1381  0
1382  0
1383  0
1384  0
1385  0
1386  0
1387  0
1388  0
1389  0
1390  0
1391  0
1392  0
1393  0
1394  0
1395  0
1396  0
1397  0
1398  0
1399  0
1400  0
1401  0
1402  0
1403  0
1404  0
1405  0
1406  0
1407  0
1408  0
1409  0
1410  0
1411  0
1412  0
1413  0
1414  0
1415  0
1416  0
1417  0
1418  0
1419  0
1420  0
1421  0
1422  0
1423  0
1424  0
1425  0
1426  0
1427  0
1428  0
1429  0
1430  0
1431  0
1432  0
1433  0
1434  0
1435  0
1436  0
1437  0
1438  0
1439  0
1440  0
1441  0
1442  0
1443  0
1444  0
1445  0
1446  0
1447  0
1448  0
1449  0
1450  0
1451  0
1452  0
1453  0
1454  0
1455  0
1456  0
1457  0
1458  0
1459  0
1460  0
1461  0
1462  0
1463  0
1464  0
1465  0
1466  0
1467  0
1468  0
1469  0
1470  0
1471  0
1472  0
1473  0
1474  0
1475  0
1476  0
1477  0
1478  0
1479  0
1480  0
1481  0
1482  0
1483  0
1484  0
1485  0
1486  0
1487  0
1488  0
1489  0
1490  0
1491  0
1492  0
1493  0
1494  0
1495  0
1496  0
1497  0
1498  0
1499  0
1500  0
1501  0
1502  0
1503  0
1504  0
1505  0
1506  0
1507  0
1508  0
1509  0
1510  0
1511  0
1512  0
1513  0
1514  0
1515  0
1516  0
1517  0
1518  0
1519  0
1520  0
1521  0
1522  0
1523  0
1524  0
1525  0
1526  0
1527  0
1528  0
1529  0
1530  0
1531  0
1532  0
1533  0
1534  0
1535  0
1536  0
1537  0
1538  0
1539  0
1540  0
1541  0
1542  0
1543  0
1544  0
1545  0
1546  0
1547  0
1548  0
1549  0
1550  0
1551  0
1552  0
1553  0
1554  0
1555  0
1556  0
1557  0
1558  0
1559  0
1560  0
1561  0
1562  0
1563  0
1564  0
1565  0
1566  0
1567  0
1568  0
1569  0
1570  0
1571  0
1572  0
1573  0
1574  0
1575  0
1576  0
1577  0
1578  0
1579  0
1580  0
1581  0
1582  0
1583  0
1584  0
1585  0
1586  0
1587  0
1588  0
1589  0
1590  0
1591  0
1592  0
1593  0
1594  0
1595  0
1596  0
1597  2
1598  7
1599  18
1600  94
1601  375
1602  972
1603  2476
1604  4227
1605  5537
1606  6140
1607  6096
1608  5859
1609  5702
1610  5463
1611  5091
1612  4993
1613  4660
1614  4563
1615  4386
1616  4075
1617  3916
1618  3692
1619  3561
1620  3349
1621  3188
1622  3035
1623  2924
1624  2865
1625  2757
1626  2683
1627  2438
1628  2337
1629  2212
1630  2150
1631  2061
1632  2019
1633  1859
1634  1908
1635  1781
1636  1710
1637  1630
1638  1544
1639  1455
1640  1369
1641  1342
1642  1321
1643  1242
1644  1262
1645  1166
1646  1131
1647  1062
1648  1042
1649  1034
1650  928
1651  949
1652  897
1653  816
1654  880
1655  805
1656  781
1657  718
1658  710
1659  665
1660  673
1661  613
1662  636
1663  586
1664  540
1665  587
1666  515
1667  513
1668  485
1669  446
1670  479
1671  461
1672  463
1673  441
1674  422
1675  421
1676  409
1677  406
1678  366
1679  375
1680  359
1681  361
1682  336
1683  319
1684  319
1685  293
1686  272
1687  302
1688  272
1689  257
1690  265
1691  255
1692  232
1693  254
1694  211
1695  238
1696  228
1697  221
1698  219
1699  204
1700  191
1701  197
1702  205
1703  190
1704  168
1705  188
1706  182
1707  160
1708  161
1709  179
1710  156
1711  148
1712  166
1713  139
1714  165
1715  144
1716  154
1717  136
1718  112
1719  120
1720  132
1721  126
1722  127
1723  137
1724  143
1725  120
1726  112
1727  147
1728  111
1729  109
1730  117
1731  113
1732  106
1733  113
1734  124
1735  123
1736  100
1737  112
1738  109
1739  97
1740  97
1741  95
1742  103
1743  90
1744  108
1745  113
1746  101
1747  81
1748  114
1749  101
1750  109
1751  84
1752  103
1753  103
1754  85
1755  83
1756  117
1757  103
1758  99
1759  119
1760  100
1761  110
1762  98
1763  106
1764  90
1765  109
1766  101
1767  105
1768  110
1769  96
1770  120
1771  115
1772  90
1773  101
1774  104
1775  121
1776  103
1777  113
1778  107
1779  102
1780  130
1781  123
1782  119
1783  113
1784  102
1785  128
1786  124
1787  123
1788  142
1789  128
1790  131
1791  132
1792  140
1793  139
1794  145
1795  138
1796  136
1797  128
1798  150
1799  140
1800  161
1801  134
1802  139
1803  134
1804  172
1805  180
1806  165
1807  167
1808  181
1809  180
1810  165
1811  171
1812  185
1813  185
1814  182
1815  185
1816  196
1817  184
1818  168
1819  219
1820  200
1821  209
1822  218
1823  226
1824  206
1825  227
1826  207
1827  199
1828  218
1829  231
1830  243
1831  202
1832  246
1833  269
1834  223
1835  269
1836  252
1837  266
1838  265
1839  297
1840  278
1841  268
1842  280
1843  296
1844  319
1845  304
1846  285
1847  290
1848  303
1849  335
1850  320
1851  333
1852  337
1853  357
1854  359
1855  346
1856  350
1857  319
1858  366
1859  389
1860  389
1861  374
1862  378
1863  367
1864  387
1865  387
1866  401
1867  415
1868  399
1869  404
1870  431
1871  392
1872  429
1873  430
1874  434
1875  440
1876  443
1877  421
1878  463
1879  472
1880  447
1881  459
1882  447
1883  506
1884  440
1885  533
1886  440
1887  497
1888  485
1889  484
1890  506
1891  515
1892  551
1893  491
1894  560
1895  556
1896  518
1897  555
1898  549
1899  519
1900  503
1901  601
1902  532
1903  573
1904  599
1905  563
1906  532
1907  613
1908  578
1909  569
1910  601
1911  604
1912  579
1913  604
1914  633
1915  607
1916  603
1917  606
1918  625
1919  643
1920  592
1921  666
1922  658
1923  663
1924  710
1925  710
1926  679
1927  687
1928  688
1929  702
1930  694
1931  654
1932  666
1933  661
1934  709
1935  695
1936  656
1937  723
1938  662
1939  705
1940  722
1941  686
1942  729
1943  734
1944  695
1945  751
1946  775
1947  696
1948  735
1949  716
1950  736
1951  701
1952  753
1953  774
1954  751
1955  799
1956  781
1957  773
1958  739
1959  779
1960  717
1961  798
1962  774
1963  775
1964  803
1965  768
1966  858
1967  728
1968  781
1969  773
1970  788
1971  756
1972  801
1973  851
1974  803
1975  810
1976  787
1977  822
1978  776
1979  794
1980  814
1981  796
1982  840
1983  813
1984  777
1985  813
1986  819
1987  815
1988  776
1989  865
1990  843
1991  800
1992  843
1993  803
1994  795
1995  773
1996  825
1997  864
1998  824
1999  809
2000  840
2001  771
2002  797
2003  801
2004  815
2005  735
2006  822
2007  772
2008  808
2009  769
2010  799
2011  824
2012  759
2013  796
2014  811
2015  826
2016  752
2017  801
2018  796
2019  820
2020  831
2021  836
2022  788
2023  845
2024  798
2025  802
2026  821
2027  846
2028  786
2029  791
2030  811
2031  787
2032  819
2033  854
2034  780
2035  768
2036  814
2037  780
2038  818
2039  745
2040  777
2041  720
2042  760
2043  778
2044  781
2045  797
2046  733
2047  785
2048  726
2049  768
2050  752
2051  712
2052  747
2053  741
2054  698
2055  765
2056  705
2057  732
2058  716
2059  734
2060  710
2061  693
2062  762
2063  746
2064  731
2065  764
2066  725
2067  721
2068  730
2069  758
2070  659
2071  736
2072  728
2073  671
2074  765
2075  683
2076  696
2077  706
2078  727
2079  693
2080  696
2081  666
2082  696
2083  674
2084  748
2085  667
2086  668
2087  606
2088  648
2089  715
2090  657
2091  674
2092  633
2093  663
2094  663
2095  713
2096  590
2097  634
2098  590
2099  649
2100  626
2101  600
2102  599
2103  624
2104  635
2105  618
2106  659
2107  654
2108  584
2109  648
2110  592
2111  601
2112  565
2113  617
2114  628
2115  586
2116  538
2117  608
2118  582
2119  554
2120  577
2121  584
2122  579
2123  555
2124  517
2125  586
2126  587
2127  499
2128  560
2129  554
2130  532
2131  524
2132  554
2133  517
2134  579
2135  532
2136  527
2137  555
2138  474
2139  543
2140  514
2141  515
2142  502
2143  477
2144  539
2145  497
2146  506
2147  502
2148  561
2149  506
2150  483
2151  482
2152  503
2153  494
2154  519
2155  435
2156  510
2157  467
2158  503
2159  451
2160  489
2161  487
2162  458
2163  465
2164  462
2165  480
2166  477
2167  445
2168  435
2169  440
2170  487
2171  430
2172  442
2173  426
2174  461
2175  454
2176  420
2177  405
2178  446
2179  401
2180  412
2181  446
2182  396
2183  416
2184  433
2185  417
2186  405
2187  407
2188  405
2189  378
2190  391
2191  393
2192  387
2193  404
2194  394
2195  384
2196  386
2197  364
2198  392
2199  367
2200  365
2201  334
2202  366
2203  362
2204  366
2205  370
2206  359
2207  352
2208  350
2209  339
2210  377
2211  319
2212  359
2213  356
2214  321
2215  328
2216  364
2217  314
2218  337
2219  293
2220  342
2221  316
2222  342
2223  339
2224  322
2225  298
2226  341
2227  332
2228  333
2229  290
2230  320
2231  297
2232  311
2233  283
2234  309
2235  289
2236  332
2237  288
2238  295
2239  288
2240  280
2241  286
2242  299
2243  281
2244  313
2245  248
2246  282
2247  291
2248  258
2249  281
2250  280
2251  259
2252  269
2253  281
2254  229
2255  244
2256  261
2257  246
2258  265
2259  261
2260  248
2261  249
2262  280
2263  233
2264  254
2265  219
2266  244
2267  224
2268  234
2269  277
2270  226
2271  231
2272  231
2273  249
2274  230
2275  226
2276  240
2277  259
2278  233
2279  229
2280  249
2281  216
2282  222
2283  228
2284  188
2285  231
2286  217
2287  212
2288  200
2289  234
2290  206
2291  232
2292  197
2293  212
2294  187
2295  191
2296  222
2297  169
2298  210
2299  192
2300  196
2301  194
2302  206
2303  189
2304  204
2305  185
2306  188
2307  180
2308  172
2309  189
2310  192
2311  202
2312  186
2313  202
2314  192
2315  184
2316  186
2317  174
2318  192
2319  189
2320  196
2321  190
2322  163
2323  177
2324  173
2325  167
2326  162
2327  158
2328  181
2329  186
2330  145
2331  157
2332  171
2333  155
2334  155
2335  172
2336  169
2337  165
2338  155
2339  138
2340  183
2341  151
2342  154
2343  149
2344  152
2345  145
2346  146
2347  157
2348  173
2349  142
2350  151
2351  149
2352  162
2353  154
2354  152
2355  136
2356  137
2357  155
2358  135
2359  128
2360  143
2361  137
2362  130
2363  111
2364  131
2365  121
2366  150
2367  130
2368  128
2369  134
2370  119
2371  131
2372  117
2373  118
2374  125
2375  130
2376  109
2377  149
2378  111
2379  128
2380  120
2381  126
2382  107
2383  112
2384  119
2385  108
2386  120
2387  114
2388  103
2389  116
2390  111
2391  119
2392  96
2393  114
2394  134
2395  99
2396  109
2397  93
2398  100
2399  103
2400  107
2401  115
2402  123
2403  103
2404  98
2405  116
2406  103
2407  107
2408  106
2409  113
2410  100
2411  112
2412  93
2413  103
2414  98
2415  114
2416  96
2417  107
2418  100
2419  86
2420  109
2421  90
2422  85
2423  91
2424  78
2425  84
2426  94
2427  79
2428  108
2429  86
2430  71
2431  94
2432  98
2433  97
2434  77
2435  80
2436  79
2437  82
2438  83
2439  85
2440  69
2441  80
2442  67
2443  97
2444  66
2445  75
2446  81
2447  71
2448  80
2449  78
2450  80
2451  86
2452  86
2453  78
2454  90
2455  79
2456  78
2457  60
2458  86
2459  72
2460  67
2461  62
2462  74
2463  100
2464  61
2465  73
2466  80
2467  68
2468  70
2469  63
2470  80
2471  70
2472  76
2473  60
2474  88
2475  57
2476  61
2477  59
2478  72
2479  76
2480  52
2481  58
2482  56
2483  62
2484  68
2485  66
2486  68
2487  65
2488  67
2489  66
2490  59
2491  69
2492  64
2493  52
2494  67
2495  58
2496  50
2497  53
2498  66
2499  47
2500  74
2501  59
2502  58
2503  57
2504  51
2505  59
2506  61
2507  59
2508  42
2509  45
2510  50
2511  64
2512  63
2513  41
2514  62
2515  53
2516  50
2517  76
2518  51
2519  46
2520  58
2521  52
2522  52
2523  31
2524  42
2525  48
2526  55
2527  45
2528  54
2529  39
2530  46
2531  56
2532  49
2533  45
2534  43
2535  37
2536  48
2537  38
2538  45
2539  57
2540  42
2541  50
2542  41
2543  38
2544  38
2545  50
2546  46
2547  43
2548  47
2549  41
2550  37
2551  26
2552  44
2553  46
2554  42
2555  44
2556  38
2557  39
2558  53
2559  45
2560  39
2561  33
2562  31
2563  43
2564  38
2565  42
2566  35
2567  38
2568  45
2569  32
2570  39
2571  44
2572  34
2573  25
2574  41
2575  39
2576  42
2577  46
2578  40
2579  30
2580  42
2581  47
2582  39
2583  31
2584  42
2585  38
2586  27
2587  41
2588  39
2589  32
2590  30
2591  41
2592  34
2593  37
2594  36
2595  29
2596  44
2597  35
2598  30
2599  26
2600  38
2601  34
2602  26
2603  36
2604  33
2605  25
2606  23
2607  36
2608  40
2609  36
2610  31
2611  40
2612  31
2613  33
2614  38
2615  38
2616  34
2617  35
2618  19
2619  31
2620  36
2621  32
2622  27
2623  31
2624  29
2625  27
2626  30
2627  30
2628  39
2629  27
2630  26
2631  42
2632  26
2633  21
2634  26
2635  28
2636  27
2637  26
2638  29
2639  37
2640  23
2641  29
2642  23
2643  31
2644  28
2645  38
2646  25
2647  23
2648  39
2649  18
2650  28
2651  26
2652  22
2653  30
2654  30
2655  22
2656  37
2657  19
2658  29
2659  27
2660  25
2661  18
2662  20
2663  28
2664  20
2665  29
2666  23
2667  25
2668  18
2669  22
2670  22
2671  19
2672  18
2673  19
2674  17
2675  19
2676  20
2677  22
2678  16
2679  20
2680  20
2681  17
2682  25
2683  18
2684  17
2685  19
2686  23
2687  19
2688  22
2689  19
2690  11
2691  24
2692  16
2693  23
2694  25
2695  23
2696  20
2697  15
2698  23
2699  25
2700  11
2701  20
2702  22
2703  20
2704  23
2705  13
2706  26
2707  20
2708  21
2709  20
2710  26
2711  13
2712  19
2713  33
2714  19
2715  21
2716  28
2717  15
2718  27
2719  25
2720  25
2721  30
2722  19
2723  21
2724  22
2725  23
2726  25
2727  20
2728  25
2729  13
2730  15
2731  22
2732  19
2733  14
2734  21
2735  19
2736  15
2737  19
2738  9
2739  19
2740  24
2741  13
2742  15
2743  16
2744  14
2745  35
2746  16
2747  17
2748  17
2749  26
2750  21
2751  19
2752  17
2753  20
2754  16
2755  20
2756  18
2757  27
2758  14
2759  19
2760  18
2761  12
2762  12
2763  12
2764  13
2765  13
2766  12
2767  15
2768  19
2769  15
2770  14
2771  21
2772  13
2773  19
2774  9
2775  18
2776  12
2777  20
2778  14
2779  17
2780  15
2781  9
2782  14
2783  14
2784  16
2785  19
2786  16
2787  14
2788  14
2789  14
2790  14
2791  11
2792  5
2793  18
2794  13
2795  13
2796  5
2797  18
2798  12
2799  13
2800  15
2801  11
2802  7
2803  13
2804  13
2805  12
2806  15
2807  10
2808  21
2809  9
2810  11
2811  12
2812  7
2813  10
2814  20
2815  13
2816  12
2817  16
2818  12
2819  15
2820  14
2821  12
2822  6
2823  16
2824  14
2825  13
2826  14
2827  12
2828  10
2829  11
2830  7
2831  10
2832  7
2833  8
2834  6
2835  16
2836  12
2837  8
2838  14
2839  11
2840  12
2841  15
2842  11
2843  14
2844  11
2845  8
2846  14
2847  11
2848  12
2849  14
2850  17
2851  9
2852  18
2853  12
2854  11
2855  15
2856  6
2857  13
2858  11
2859  16
2860  3
2861  11
2862  18
2863  12
2864  14
2865  14
2866  5
2867  12
2868  15
2869  13
2870  14
2871  9
2872  13
2873  10
2874  9
2875  6
2876  10
2877  11
2878  5
2879  19
2880  14
2881  15
2882  9
2883  7
2884  16
2885  11
2886  6
2887  9
2888  9
2889  13
2890  8
2891  11
2892  6
2893  8
2894  12
2895  11
2896  6
2897  7
2898  10
2899  11
2900  12
2901  9
2902  6
2903  9
2904  14
2905  10
2906  6
2907  11
2908  10
2909  17
2910  13
2911  7
2912  15
2913  9
2914  5
2915  10
2916  12
2917  8
2918  9
2919  8
2920  8
2921  9
2922  3
2923  11
2924  7
2925  7
2926  14
2927  8
2928  11
2929  4
2930  14
2931  11
2932  7
2933  8
2934  9
2935  11
2936  12
2937  11
2938  9
2939  8
2940  13
2941  9
2942  9
2943  8
2944  8
2945  7
2946  9
2947  8
2948  5
2949  9
2950  12
2951  9
2952  12
2953  8
2954  11
2955  9
2956  8
2957  4
2958  8
2959  4
2960  3
2961  9
2962  6
2963  11
2964  6
2965  4
2966  12
2967  6
2968  10
2969  17
2970  8
2971  7
2972  9
2973  7
2974  5
2975  10
2976  14
2977  14
2978  5
2979  8
2980  4
2981  8
2982  6
2983  7
2984  9
2985  11
2986  11
2987  9
2988  9
2989  9
2990  9
2991  6
2992  7
2993  7
2994  5
2995  9
2996  5
2997  9
2998  9
2999  11
3000  7
3001  9
3002  8
3003  5
3004  8
3005  8
3006  11
3007  9
3008  5
3009  12
3010  7
3011  4
3012  10
3013  4
3014  9
3015  8
3016  8
3017  9
3018  7
3019  9
3020  13
3021  8
3022  6
3023  6
3024  10
3025  7
3026  9
3027  9
3028  6
3029  4
3030  3
3031  9
3032  5
3033  2
3034  5
3035  2
3036  9
3037  3
3038  7
3039  4
3040  6
3041  10
3042  4
3043  6
3044  5
3045  4
3046  6
3047  3
3048  6
3049  6
3050  7
3051  9
3052  10
3053  7
3054  7
3055  4
3056  8
3057  7
3058  5
3059  8
3060  9
3061  7
3062  6
3063  2
3064  5
3065  11
3066  7
3067  8
3068  4
3069  7
3070  6
3071  9
3072  5
3073  14
3074  9
3075  7
3076  7
3077  4
3078  9
3079  9
3080  5
3081  2
3082  15
3083  7
3084  7
3085  6
3086  2
3087  3
3088  10
3089  8
3090  9
3091  9
3092  5
3093  7
3094  7
3095  2
3096  5
3097  6
3098  5
3099  2
3100  9
3101  6
3102  7
3103  8
3104  10
3105  7
3106  7
3107  7
3108  5
3109  10
3110  9
3111  8
3112  11
3113  9
3114  8
3115  6
3116  10
3117  9
3118  5
3119  9
3120  6
3121  7
3122  10
3123  1
3124  4
3125  4
3126  1
3127  6
3128  4
3129  4
3130  4
3131  4
3132  5
3133  9
3134  7
3135  5
3136  6
3137  3
3138  4
3139  5
3140  2
3141  7
3142  4
3143  4
3144  5
3145  2
3146  7
3147  5
3148  6
3149  8
3150  1
3151  4
3152  6
3153  9
3154  2
3155  3
3156  5
3157  4
3158  5
3159  4
3160  9
3161  5
3162  7
3163  5
3164  5
3165  3
3166  5
3167  3
3168  7
3169  6
3170  4
3171  4
3172  1
3173  6
3174  3
3175  5
3176  8
3177  2
3178  8
3179  4
3180  6
3181  6
3182  6
3183  8
3184  4
3185  6
3186  4
3187  6
3188  7
3189  8
3190  3
3191  1
3192  3
3193  6
3194  6
3195  4
3196  7
3197  10
3198  6
3199  3
3200  6
3201  6
3202  8
3203  4
3204  3
3205  5
3206  1
3207  4
3208  7
3209  5
3210  5
3211  4
3212  5
3213  2
3214  1
3215  8
3216  6
3217  6
3218  7
3219  6
3220  6
3221  5
3222  5
3223  4
3224  3
3225  7
3226  7
3227  5
3228  4
3229  6
3230  4
3231  5
3232  3
3233  8
3234  6
3235  4
3236  5
3237  4
3238  4
3239  7
3240  11
3241  9
3242  10
3243  9
3244  6
3245  1
3246  4
3247  2
3248  6
3249  5
3250  7
3251  5
3252  7
3253  4
3254  4
3255  4
3256  4
3257  7
3258  9
3259  3
3260  5
3261  6
3262  0
3263  3
3264  0
3265  5
3266  4
3267  5
3268  3
3269  4
3270  2
3271  4
3272  6
3273  4
3274  5
3275  4
3276  4
3277  4
3278  6
3279  2
3280  7
3281  2
3282  7
3283  3
3284  1
3285  7
3286  5
3287  3
3288  2
3289  3
3290  4
3291  7
3292  3
3293  4
3294  5
3295  6
3296  8
3297  3
3298  4
3299  6
3300  3
3301  4
3302  4
3303  4
3304  5
3305  5
3306  6
3307  3
3308  8
3309  0
3310  9
3311  7
3312  4
3313  3
3314  4
3315  3
3316  2
3317  2
3318  4
3319  14
3320  3
3321  5
3322  9
3323  7
3324  10
3325  9
3326  9
3327  5
3328  2
3329  7
3330  5
3331  3
3332  7
3333  5
3334  5
3335  4
3336  4
3337  2
3338  6
3339  2
3340  2
3341  5
3342  1
3343  5
3344  2
3345  4
3346  7
3347  8
3348  5
3349  5
3350  4
3351  7
3352  6
3353  4
3354  4
3355  3
3356  5
3357  3
3358  5
3359  3
3360  6
3361  1
3362  1
3363  9
3364  4
3365  4
3366  3
3367  3
3368  4
3369  5
3370  1
3371  6
3372  5
3373  1
3374  2
3375  3
3376  4
3377  3
3378  2
3379  3
3380  4
3381  4
3382  6
3383  6
3384  2
3385  2
3386  4
3387  6
3388  8
3389  2
3390  6
3391  4
3392  3
3393  4
3394  6
3395  6
3396  2
3397  5
3398  5
3399  4
3400  9
3401  5
3402  5
3403  6
3404  4
3405  9
3406  4
3407  5
3408  3
3409  1
3410  5
3411  5
3412  4
3413  4
3414  5
3415  6
3416  3
3417  0
3418  3
3419  4
3420  4
3421  2
3422  5
3423  4
3424  9
3425  5
3426  4
3427  6
3428  0
3429  4
3430  2
3431  8
3432  6
3433  10
3434  6
3435  0
3436  3
3437  5
3438  4
3439  4
3440  2
3441  4
3442  3
3443  7
3444  5
3445  6
3446  6
3447  2
3448  4
3449  3
3450  4
3451  5
3452  7
3453  5
3454  4
3455  2
3456  1
3457  6
3458  3
3459  4
3460  3
3461  4
3462  5
3463  3
3464  2
3465  4
3466  6
3467  4
3468  2
3469  5
3470  3
3471  3
3472  3
3473  3
3474  3
3475  3
3476  0
3477  3
3478  3
3479  3
3480  3
3481  2
3482  3
3483  0
3484  1
3485  4
3486  0
3487  5
3488  2
3489  2
3490  3
3491  3
3492  1
3493  5
3494  3
3495  3
3496  3
3497  4
3498  7
3499  7
3500  2
3501  5
3502  1
3503  0
3504  3
3505  1
3506  2
3507  5
3508  2
3509  6
3510  2
3511  3
3512  2
3513  4
3514  2
3515  6
3516  6
3517  2
3518  8
3519  6
3520  4
3521  2
3522  2
3523  4
3524  5
3525  0
3526  6
3527  1
3528  3
3529  2
3530  3
3531  6
3532  3
3533  2
3534  3
3535  5
3536  4
3537  5
3538  5
3539  4
3540  6
3541  3
3542  3
3543  2
3544  4
3545  4
3546  1
3547  4
3548  4
3549  7
3550  5
3551  2
3552  3
3553  2
3554  5
3555  8
3556  6
3557  1
3558  3
3559  3
3560  4
3561  3
3562  3
3563  5
3564  5
3565  3
3566  5
3567  2
3568  1
3569  8
3570  2
3571  4
3572  3
3573  5
3574  4
3575  7
3576  5
3577  3
3578  1
3579  7
3580  1
3581  3
3582  3
3583  5
3584  7
3585  4
3586  4
3587  4
3588  3
3589  3
3590  2
3591  0
3592  6
3593  4
3594  5
3595  4
3596  5
3597  2
3598  2
3599  3
3600  4
3601  4
3602  8
3603  6
3604  3
3605  4
3606  4
3607  1
3608  4
3609  3
3610  5
3611  6
3612  2
3613  6
3614  4
3615  1
3616  2
3617  3
3618  5
3619  3
3620  7
3621  3
3622  5
3623  2
3624  3
3625  6
3626  4
3627  3
3628  5
3629  2
3630  1
3631  3
3632  2
3633  4
3634  1
3635  3
3636  4
3637  5
3638  4
3639  5
3640  4
3641  0
3642  4
3643  4
3644  4
3645  0
3646  3
3647  2
3648  5
3649  6
3650  2
3651  3
3652  1
3653  5
3654  2
3655  1
3656  4
3657  2
3658  4
3659  7
3660  3
3661  8
3662  3
3663  1
3664  2
3665  4
3666  3
3667  3
3668  6
3669  2
3670  5
3671  1
3672  6
3673  2
3674  3
3675  2
3676  3
3677  3
3678  1
3679  3
3680  2
3681  3
3682  2
3683  0
3684  0
3685  4
3686  4
3687  4
3688  3
3689  4
3690  6
3691  5
3692  2
3693  3
3694  4
3695  0
3696  5
3697  7
3698  2
3699  4
3700  0
3701  4
3702  3
3703  0
3704  5
3705  4
3706  2
3707  6
3708  7
3709  4
3710  4
3711  3
3712  3
3713  3
3714  4
3715  5
3716  3
3717  1
3718  2
3719  2
3720  1
3721  3
3722  2
3723  5
3724  5
3725  3
3726  2
3727  4
3728  1
3729  3
3730  4
3731  5
3732  6
3733  5
3734  3
3735  0
3736  2
3737  1
3738  3
3739  5
3740  4
3741  3
3742  4
3743  6
3744  2
3745  5
3746  6
3747  4
3748  1
3749  1
3750  2
3751  5
3752  2
3753  2
3754  4
3755  3
3756  4
3757  5
3758  2
3759  0
3760  2
3761  0
3762  2
3763  4
3764  3
3765  4
3766  3
3767  2
3768  3
3769  4
3770  2
3771  5
3772  1
3773  3
3774  2
3775  5
3776  0
3777  4
3778  2
3779  5
3780  4
3781  5
3782  2
3783  3
3784  3
3785  3
3786  4
3787  4
3788  4
3789  2
3790  6
3791  3
3792  1
3793  3
3794  1
3795  4
3796  6
3797  3
3798  2
3799  9
3800  3
3801  2
3802  4
3803  0
3804  4
3805  3
3806  4
3807  4
3808  3
3809  3
3810  2
3811  5
3812  3
3813  1
3814  3
3815  5
3816  3
3817  0
3818  3
3819  2
3820  4
3821  7
3822  6
3823  5
3824  8
3825  3
3826  1
3827  0
3828  4
3829  6
3830  3
3831  2
3832  3
3833  3
3834  3
3835  4
3836  4
3837  1
3838  2
3839  4
3840  0
3841  0
3842  0
3843  0
3844  0
3845  0
3846  0
3847  0
3848  0
3849  0
3850  0
3851  0
3852  0
3853  0
3854  0
3855  0
3856  0
3857  0
3858  0
3859  0
3860  0
3861  0
3862  0
3863  0
3864  0
3865  0
3866  0
3867  0
3868  0
3869  0
3870  0
3871  0
3872  0
3873  0
3874  0
3875  0
3876  0
3877  0
3878  0
3879  0
3880  0
3881  0
3882  0
3883  0
3884  0
3885  0
3886  0
3887  0
3888  0
3889  0
3890  0
3891  0
3892  0
3893  0
3894  0
3895  0
3896  0
3897  0
3898  0
3899  0
3900  0
3901  0
3902  0
3903  0
3904  0
3905  0
3906  0
3907  0
3908  0
3909  0
3910  0
3911  0
3912  0
3913  0
3914  0
3915  0
3916  0
3917  0
3918  0
3919  0
3920  0
3921  0
3922  0
3923  0
3924  0
3925  0
3926  0
3927  0
3928  0
3929  0
3930  0
3931  0
3932  0
3933  0
3934  0
3935  0
3936  0
3937  0
3938  0
3939  0
3940  0
3941  0
3942  0
3943  0
3944  0
3945  0
3946  0
3947  0
3948  0
3949  0
3950  0
3951  0
3952  0
3953  0
3954  0
3955  0
3956  0
3957  0
3958  0
3959  0
3960  0
3961  0
3962  0
3963  0
3964  0
3965  0
3966  0
3967  0
3968  0
3969  0
3970  0
3971  0
3972  0
3973  0
3974  0
3975  0
3976  0
3977  0
3978  0
3979  0
3980  0
3981  0
3982  0
3983  0
3984  0
3985  0
3986  0
3987  0
3988  0
3989  0
3990  0
3991  0
3992  0
3993  0
3994  0
3995  0
3996  0
3997  0
3998  0
3999  0
4000  0
4001  0
4002  0
4003  0
4004  0
4005  0
4006  0
4007  0
4008  0
4009  0
4010  0
4011  0
4012  0
4013  0
4014  0
4015  0
4016  0
4017  0
4018  0
4019  0
4020  0
4021  0
4022  0
4023  0
4024  0
4025  0
4026  0
4027  0
4028  0
4029  0
4030  0
4031  0
4032  0
4033  0
4034  0
4035  0
4036  0
4037  0
4038  0
4039  0
4040  0
4041  0
4042  0
4043  0
4044  0
4045  0
4046  0
4047  0
4048  0
4049  0
4050  0
4051  0
4052  0
4053  0
4054  0
4055  0
4056  0
4057  0
4058  0
4059  0
4060  0
4061  0
4062  0
4063  0
4064  0
4065  0
4066  0
4067  0
4068  0
4069  0
4070  0
4071  0
4072  0
4073  0
4074  0
4075  0
4076  0
4077  0
4078  0
4079  0
4080  0
4081  0
4082  0
4083  0
4084  0
4085  0
4086  0
4087  0
4088  0
4089  0
4090  0
4091  0
4092  0
4093  0
4094  0
4095  0
