0  0
1  0
2  0
3  0
4  0
5  0
6  0
7  0
8  0
9  0
10  0
11  0
12  0
13  0
14  0
15  0
16  0
17  0
18  0
19  0
20  0
21  0
22  0
23  0
24  0
25  0
26  0
27  0
28  0
29  0
30  0
31  0
32  0
33  0
34  0
35  0
36  0
37  0
38  0
39  0
40  0
41  0
42  0
43  0
44  0
45  0
46  0
47  0
48  0
49  0
50  0
51  0
52  0
53  0
54  0
55  0
56  0
57  0
58  0
59  0
60  0
61  0
62  0
63  0
64  0
65  0
66  0
67  0
68  0
69  0
70  0
71  0
72  0
73  0
74  0
75  0
76  0
77  0
78  0
79  0
80  0
81  0
82  0
83  0
84  0
85  0
86  0
87  0
88  0
89  0
90  0
91  0
92  0
93  0
94  0
95  0
96  0
97  0
98  0
99  0
100  0
101  0
102  0
103  0
104  0
105  0
106  0
107  0
108  0
109  0
110  0
111  0
112  0
113  0
114  0
115  0
116  0
117  0
118  0
119  0
120  0
121  0
122  0
123  0
124  0
125  0
126  0
127  0
128  0
129  0
130  0
131  0
132  0
133  0
134  0
135  0
136  0
137  0
138  0
139  0
140  0
141  0
142  0
143  0
144  0
145  0
146  0
147  0
148  0
149  0
150  0
151  0
152  0
153  0
154  0
155  0
156  0
157  0
158  0
159  0
160  0
161  0
162  0
163  0
164  0
165  0
166  0
167  0
168  0
169  0
170  0
171  0
172  0
173  0
174  0
175  0
176  0
177  0
178  0
179  0
180  0
181  0
182  0
183  0
184  0
185  0
186  0
187  0
188  0
189  0
190  0
191  0
192  0
193  0
194  0
195  0
196  0
197  0
198  0
199  0
200  0
201  0
202  0
203  0
204  0
205  0
206  0
207  0
208  0
209  0
210  0
211  0
212  0
213  0
214  0
215  0
216  0
217  0
218  0
219  0
220  0
221  0
222  0
223  0
224  0
225  0
226  0
227  0
228  0
229  0
230  0
231  0
232  0
233  0
234  0
235  0
236  0
237  0
238  0
239  0
240  0
241  0
242  0
243  0
244  0
245  0
246  0
247  0
248  0
249  0
250  0
251  0
252  0
253  0
254  0
255  0
256  0
257  0
258  0
259  0
260  0
261  0
262  0
263  0
264  0
265  0
266  0
267  0
268  0
269  0
270  0
271  0
272  0
273  0
274  0
275  0
276  0
277  0
278  0
279  0
280  0
281  0
282  0
283  0
284  0
285  0
286  0
287  0
288  0
289  0
290  0
291  0
292  0
293  0
294  0
295  0
296  0
297  0
298  0
299  0
300  0
301  0
302  0
303  0
304  0
305  0
306  0
307  0
308  0
309  0
310  0
311  0
312  0
313  0
314  0
315  0
316  0
317  0
318  0
319  0
320  0
321  0
322  0
323  0
324  0
325  0
326  0
327  0
328  0
329  0
330  0
331  0
332  0
333  0
334  0
335  0
336  0
337  0
338  0
339  0
340  0
341  0
342  0
343  0
344  0
345  0
346  0
347  0
348  0
349  0
350  0
351  0
352  0
353  0
354  0
355  0
356  0
357  0
358  0
359  0
360  0
361  0
362  0
363  0
364  0
365  0
366  0
367  0
368  0
369  0
370  0
371  0
372  0
373  0
374  0
375  0
376  0
377  0
378  0
379  0
380  0
381  0
382  0
383  0
384  0
385  0
386  0
387  0
388  0
389  0
390  0
391  0
392  0
393  0
394  0
395  0
396  0
397  0
398  0
399  0
400  0
401  0
402  0
403  0
404  0
405  0
406  0
407  0
408  0
409  0
410  0
411  0
412  0
413  0
414  0
415  0
416  0
417  0
418  0
419  0
420  0
421  0
422  0
423  0
424  0
425  0
426  0
427  0
428  0
429  0
430  0
431  0
432  0
433  0
434  0
435  0
436  0
437  0
438  0
439  0
440  0
441  0
442  0
443  0
444  0
445  0
446  0
447  0
448  0
449  0
450  0
451  0
452  0
453  0
454  0
455  0
456  0
457  0
458  0
459  0
460  0
461  0
462  0
463  0
464  0
465  0
466  0
467  0
468  0
469  0
470  0
471  0
472  0
473  0
474  0
475  0
476  0
477  0
478  0
479  0
480  0
481  0
482  0
483  0
484  0
485  0
486  0
487  0
488  0
489  0
490  0
491  0
492  0
493  0
494  0
495  0
496  0
497  0
498  0
499  0
500  0
501  0
502  0
503  0
504  0
505  0
506  0
507  0
508  0
509  0
510  0
511  0
512  0
513  0
514  0
515  0
516  0
517  0
518  0
519  0
520  0
521  0
522  0
523  0
524  0
525  0
526  0
527  0
528  0
529  0
530  0
531  0
532  0
533  0
534  0
535  0
536  0
537  0
538  0
539  0
540  0
541  0
542  0
543  0
544  0
545  0
546  0
547  0
548  0
549  0
550  0
551  0
552  0
553  0
554  0
555  0
556  0
557  0
558  0
559  0
560  0
561  0
562  0
563  0
564  0
565  0
566  0
567  0
568  0
569  0
570  0
571  0
572  0
573  0
574  0
575  0
576  0
577  0
578  0
579  0
580  0
581  0
582  0
583  0
584  0
585  0
586  0
587  0
588  0
589  0
590  0
591  0
592  0
593  0
594  0
595  0
596  0
597  0
598  0
599  0
600  0
601  0
602  0
603  0
604  0
605  0
606  0
607  0
608  0
609  0
610  0
611  0
612  0
613  0
614  0
615  0
616  0
617  0
618  0
619  0
620  0
621  0
622  0
623  0
624  0
625  0
626  0
627  0
628  0
629  0
630  0
631  0
632  0
633  0
634  0
635  0
636  0
637  0
638  0
639  0
640  0
641  0
642  0
643  0
644  0
645  0
646  0
647  0
648  0
649  0
650  0
651  0
652  0
653  0
654  0
655  0
656  0
657  0
658  0
659  0
660  0
661  0
662  0
663  0
664  0
665  0
666  0
667  0
668  0
669  0
670  0
671  0
672  0
673  0
674  0
675  0
676  0
677  0
678  0
679  0
680  0
681  0
682  0
683  0
684  0
685  0
686  0
687  0
688  0
689  0
690  0
691  0
692  0
693  0
694  0
695  0
696  0
697  0
698  0
699  0
700  0
701  0
702  0
703  0
704  0
705  0
706  0
707  0
708  0
709  0
710  0
711  0
712  0
713  0
714  0
715  0
716  0
717  0
718  0
719  0
720  0
721  0
722  0
723  0
724  0
725  0
726  0
727  0
728  0
729  0
730  0
731  0
732  0
733  0
734  0
735  0
736  0
737  0
738  0
739  0
740  0
741  0
742  0
743  0
744  0
745  0
746  0
747  0
748  0
749  0
750  0
751  0
752  0
753  0
754  0
755  0
756  0
757  0
758  0
759  0
760  0
761  0
762  0
763  0
764  0
765  0
766  0
767  0
768  0
769  0
770  0
771  0
772  0
773  0
774  0
775  0
776  0
777  0
778  0
779  0
780  0
781  0
782  0
783  0
784  0
785  0
786  0
787  0
788  0
789  0
790  0
791  0
792  0
793  0
794  0
795  0
796  0
797  0
798  0
799  0
800  0
801  0
802  0
803  0
804  0
805  0
806  0
807  0
808  0
809  0
810  0
811  0
812  0
813  0
814  0
815  0
816  0
817  0
818  0
819  0
820  0
821  0
822  0
823  0
824  0
825  0
826  0
827  0
828  0
829  0
830  0
831  0
832  0
833  0
834  0
835  0
836  0
837  0
838  0
839  0
840  0
841  0
842  0
843  0
844  0
845  0
846  0
847  0
848  0
849  0
850  0
851  0
852  0
853  0
854  0
855  0
856  0
857  0
858  0
859  0
860  0
861  0
862  0
863  0
864  0
865  0
866  0
867  0
868  0
869  0
870  0
871  0
872  0
873  0
874  0
875  0
876  0
877  0
878  0
879  0
880  0
881  0
882  0
883  0
884  0
885  0
886  0
887  0
888  0
889  0
890  0
891  0
892  0
893  0
894  0
895  0
896  0
897  0
898  0
899  0
900  0
901  0
902  0
903  0
904  0
905  0
906  0
907  0
908  0
909  0
910  0
911  0
912  0
913  0
914  0
915  0
916  0
917  0
918  0
919  0
920  0
921  0
922  0
923  0
924  0
925  0
926  0
927  0
928  0
929  0
930  0
931  0
932  0
933  0
934  0
935  0
936  0
937  0
938  0
939  0
940  0
941  0
942  0
943  0
944  0
945  0
946  0
947  0
948  0
949  0
950  0
951  0
952  0
953  0
954  0
955  0
956  0
957  0
958  0
959  0
960  0
961  0
962  0
963  0
964  0
965  0
966  0
967  0
968  0
969  0
970  0
971  0
972  0
973  0
974  0
975  0
976  0
977  0
978  0
979  0
980  0
981  0
982  0
983  0
984  0
985  0
986  0
987  0
988  0
989  0
990  0
991  0
992  0
993  0
994  0
995  0
996  0
997  0
998  0
999  0
1000  0
1001  0
1002  0
1003  0
1004  0
1005  0
1006  0
1007  0
1008  0
1009  0
1010  0
1011  0
1012  0
1013  0
1014  0
1015  0
1016  0
1017  0
1018  0
1019  0
1020  0
1021  0
1022  0
1023  0
1024  0
1025  0
1026  0
1027  0
1028  0
1029  0
1030  0
1031  0
1032  0
1033  0
1034  0
1035  0
1036  0
1037  0
1038  0
1039  0
1040  0
1041  0
1042  0
1043  0
1044  0
1045  0
1046  0
1047  0
1048  0
1049  0
1050  0
1051  0
1052  0
1053  0
1054  0
1055  0
1056  0
1057  0
1058  0
1059  0
1060  0
1061  0
1062  0
1063  0
1064  0
1065  0
1066  0
1067  0
1068  0
1069  0
1070  0
1071  0
1072  0
1073  0
1074  0
1075  0
1076  0
1077  0
1078  0
1079  0
1080  0
1081  0
1082  0
1083  0
1084  0
1085  0
1086  0
1087  0
1088  0
1089  0
1090  0
1091  0
1092  0
1093  0
1094  0
1095  0
1096  0
1097  0
1098  0
1099  0
1100  0
1101  0
1102  0
1103  0
1104  0
1105  0
1106  0
1107  0
1108  0
1109  0
1110  0
1111  0
1112  0
1113  0
1114  0
1115  0
1116  0
1117  0
1118  0
1119  0
1120  0
1121  0
1122  0
1123  0
1124  0
1125  0
1126  0
1127  0
1128  0
1129  0
1130  0
1131  0
1132  0
1133  0
1134  0
1135  0
1136  0
1137  0
1138  0
1139  0
1140  0
1141  0
1142  0
1143  0
1144  0
1145  0
1146  0
1147  0
1148  0
1149  0
1150  0
1151  0
1152  0
1153  0
1154  0
1155  0
1156  0
1157  0
1158  0
1159  0
1160  0
1161  0
1162  0
1163  0
1164  0
1165  0
1166  0
1167  0
1168  0
1169  0
1170  0
1171  0
1172  0
1173  0
1174  0
1175  0
1176  0
1177  0
1178  0
1179  0
1180  0
1181  0
1182  0
1183  0
1184  0
1185  0
1186  0
1187  0
1188  0
1189  0
1190  0
1191  0
1192  0
1193  0
1194  0
1195  0
1196  0
1197  0
1198  0
1199  0
1200  0
1201  0
1202  0
1203  0
1204  0
1205  0
1206  0
1207  0
1208  0
1209  0
1210  0
1211  0
1212  0
1213  0
1214  0
1215  0
1216  0
1217  0
1218  0
1219  0
1220  0
1221  0
1222  0
1223  0
1224  0
1225  0
1226  0
1227  0
1228  0
1229  0
1230  0
1231  0
1232  0
1233  0
1234  0
1235  0
1236  0
1237  0
1238  0
1239  0
1240  0
1241  0
1242  0
1243  0
1244  0
1245  0
1246  0
1247  0
1248  0
1249  0
1250  0
1251  0
1252  0
1253  0
1254  0
1255  0
1256  0
1257  0
1258  0
1259  0
1260  0
1261  0
1262  0
1263  0
1264  0
1265  0
1266  0
1267  0
1268  0
1269  0
1270  0
1271  0
1272  0
1273  0
1274  0
1275  0
1276  0
1277  0
1278  0
1279  0
1280  0
1281  0
1282  0
1283  0
1284  0
1285  0
1286  0
1287  0
1288  0
1289  0
1290  0
1291  0
1292  0
1293  0
1294  0
1295  0
1296  0
1297  0
1298  0
1299  0
1300  0
1301  0
1302  0
1303  0
1304  0
1305  0
1306  0
1307  0
1308  0
1309  0
1310  0
1311  0
1312  0
1313  0
1314  0
1315  0
1316  0
1317  0
1318  0
1319  0
1320  0
1321  0
1322  0
1323  0
1324  0
1325  0
1326  0
1327  0
1328  0
1329  0
1330  0
1331  0
1332  0
1333  0
1334  0
1335  0
1336  0
1337  0
1338  0
1339  0
1340  0
1341  0
1342  0
1343  0
1344  0
1345  0
1346  0
1347  0
1348  0
1349  0
1350  0
1351  0
1352  0
1353  0
1354  0
1355  0
1356  0
1357  0
1358  0
1359  0
1360  0
1361  0
1362  0
1363  0
1364  0
1365  0
1366  0
1367  0
1368  0
1369  0
1370  0
1371  0
1372  0
1373  0
1374  0
1375  0
1376  0
1377  0
1378  0
1379  0
1380  0
1381  0
1382  0
1383  0
1384  0
1385  0
1386  0
1387  0
1388  0
1389  0
1390  0
1391  0
1392  0
1393  0
1394  0
1395  0
1396  0
1397  0
1398  0
1399  0
1400  0
1401  0
1402  0
1403  0
1404  0
1405  0
1406  0
1407  0
1408  0
1409  0
1410  0
1411  0
1412  0
1413  0
1414  0
1415  0
1416  0
1417  0
1418  0
1419  0
1420  0
1421  0
1422  0
1423  0
1424  0
1425  0
1426  0
1427  0
1428  0
1429  0
1430  0
1431  0
1432  0
1433  0
1434  0
1435  0
1436  0
1437  0
1438  0
1439  0
1440  0
1441  0
1442  0
1443  0
1444  0
1445  0
1446  0
1447  0
1448  0
1449  0
1450  0
1451  0
1452  0
1453  0
1454  0
1455  0
1456  0
1457  0
1458  0
1459  0
1460  0
1461  0
1462  0
1463  0
1464  0
1465  0
1466  0
1467  0
1468  0
1469  0
1470  0
1471  0
1472  0
1473  0
1474  0
1475  0
1476  0
1477  0
1478  0
1479  0
1480  0
1481  0
1482  0
1483  0
1484  0
1485  0
1486  0
1487  0
1488  0
1489  0
1490  0
1491  0
1492  0
1493  0
1494  0
1495  0
1496  0
1497  0
1498  0
1499  0
1500  0
1501  0
1502  0
1503  0
1504  0
1505  0
1506  0
1507  0
1508  0
1509  0
1510  0
1511  0
1512  0
1513  0
1514  0
1515  0
1516  0
1517  0
1518  0
1519  0
1520  0
1521  0
1522  0
1523  0
1524  0
1525  0
1526  0
1527  0
1528  0
1529  0
1530  0
1531  0
1532  0
1533  0
1534  0
1535  0
1536  0
1537  0
1538  0
1539  0
1540  0
1541  0
1542  0
1543  0
1544  0
1545  0
1546  0
1547  0
1548  0
1549  0
1550  0
1551  0
1552  0
1553  0
1554  0
1555  0
1556  0
1557  0
1558  0
1559  0
1560  0
1561  0
1562  0
1563  0
1564  0
1565  0
1566  0
1567  0
1568  0
1569  0
1570  0
1571  0
1572  0
1573  0
1574  0
1575  0
1576  0
1577  0
1578  0
1579  0
1580  0
1581  0
1582  0
1583  0
1584  0
1585  0
1586  0
1587  0
1588  0
1589  0
1590  0
1591  0
1592  0
1593  0
1594  0
1595  1
1596  2
1597  2
1598  16
1599  39
1600  149
1601  514
1602  1584
1603  3779
1604  6456
1605  8626
1606  9310
1607  9648
1608  9528
1609  9441
1610  9247
1611  8617
1612  8538
1613  8542
1614  8095
1615  7953
1616  7786
1617  7392
1618  7114
1619  6903
1620  6432
1621  6502
1622  6168
1623  5991
1624  5784
1625  5673
1626  5477
1627  5289
1628  5193
1629  4901
1630  4745
1631  4634
1632  4431
1633  4336
1634  4131
1635  3905
1636  3799
1637  3698
1638  3504
1639  3456
1640  3329
1641  3280
1642  3224
1643  2986
1644  2869
1645  2782
1646  2671
1647  2547
1648  2504
1649  2388
1650  2379
1651  2320
1652  2230
1653  2288
1654  2097
1655  2021
1656  2012
1657  1937
1658  1842
1659  1780
1660  1848
1661  1775
1662  1695
1663  1590
1664  1579
1665  1454
1666  1479
1667  1479
1668  1411
1669  1401
1670  1373
1671  1287
1672  1203
1673  1311
1674  1248
1675  1162
1676  1211
1677  1174
1678  1164
1679  1113
1680  1065
1681  1051
1682  1039
1683  981
1684  957
1685  995
1686  879
1687  920
1688  906
1689  856
1690  858
1691  831
1692  839
1693  838
1694  814
1695  750
1696  702
1697  771
1698  678
1699  676
1700  686
1701  652
1702  613
1703  641
1704  653
1705  604
1706  593
1707  620
1708  631
1709  567
1710  531
1711  561
1712  516
1713  558
1714  544
1715  479
1716  474
1717  473
1718  429
1719  475
1720  413
1721  452
1722  436
1723  446
1724  435
1725  398
1726  383
1727  380
1728  430
1729  328
1730  394
1731  377
1732  389
1733  349
1734  366
1735  328
1736  349
1737  354
1738  330
1739  326
1740  307
1741  324
1742  312
1743  280
1744  266
1745  251
1746  270
1747  246
1748  240
1749  280
1750  263
1751  249
1752  246
1753  273
1754  222
1755  237
1756  229
1757  240
1758  245
1759  218
1760  215
1761  199
1762  187
1763  221
1764  204
1765  202
1766  179
1767  197
1768  179
1769  173
1770  191
1771  197
1772  180
1773  160
1774  164
1775  168
1776  177
1777  151
1778  153
1779  170
1780  130
1781  153
1782  151
1783  140
1784  144
1785  138
1786  111
1787  146
1788  137
1789  130
1790  135
1791  138
1792  136
1793  135
1794  135
1795  115
1796  115
1797  124
1798  108
1799  126
1800  129
1801  119
1802  124
1803  122
1804  115
1805  99
1806  128
1807  100
1808  101
1809  107
1810  103
1811  93
1812  121
1813  100
1814  102
1815  93
1816  105
1817  100
1818  108
1819  94
1820  94
1821  103
1822  98
1823  122
1824  96
1825  97
1826  83
1827  99
1828  94
1829  88
1830  73
1831  102
1832  89
1833  110
1834  104
1835  98
1836  104
1837  99
1838  110
1839  94
1840  83
1841  84
1842  107
1843  112
1844  94
1845  100
1846  108
1847  101
1848  105
1849  110
1850  92
1851  103
1852  97
1853  109
1854  97
1855  106
1856  108
1857  95
1858  113
1859  115
1860  126
1861  98
1862  123
1863  103
1864  98
1865  128
1866  121
1867  150
1868  121
1869  144
1870  149
1871  128
1872  165
1873  141
1874  149
1875  136
1876  138
1877  153
1878  159
1879  156
1880  188
1881  198
1882  182
1883  199
1884  167
1885  164
1886  173
1887  162
1888  182
1889  203
1890  185
1891  185
1892  208
1893  197
1894  220
1895  206
1896  221
1897  215
1898  211
1899  219
1900  238
1901  254
1902  281
1903  257
1904  255
1905  257
1906  248
1907  261
1908  226
1909  256
1910  297
1911  281
1912  293
1913  300
1914  255
1915  284
1916  301
1917  338
1918  272
1919  302
1920  312
1921  305
1922  330
1923  332
1924  335
1925  325
1926  379
1927  347
1928  341
1929  338
1930  336
1931  357
1932  403
1933  406
1934  394
1935  371
1936  406
1937  425
1938  379
1939  394
1940  379
1941  388
1942  379
1943  438
1944  419
1945  379
1946  416
1947  374
1948  438
1949  402
1950  410
1951  446
1952  470
1953  382
1954  446
1955  426
1956  443
1957  453
1958  437
1959  446
1960  414
1961  429
1962  381
1963  477
1964  477
1965  453
1966  422
1967  505
1968  442
1969  494
1970  467
1971  456
1972  456
1973  461
1974  450
1975  444
1976  478
1977  454
1978  441
1979  458
1980  460
1981  457
1982  420
1983  505
1984  453
1985  487
1986  443
1987  489
1988  470
1989  477
1990  452
1991  435
1992  455
1993  442
1994  462
1995  435
1996  454
1997  469
1998  466
1999  443
2000  452
2001  460
2002  445
2003  471
2004  440
2005  468
2006  440
2007  426
2008  479
2009  437
2010  444
2011  449
2012  460
2013  432
2014  462
2015  430
2016  456
2017  435
2018  436
2019  432
2020  438
2021  410
2022  464
2023  442
2024  433
2025  463
2026  412
2027  435
2028  433
2029  398
2030  425
2031  415
2032  412
2033  407
2034  445
2035  432
2036  412
2037  409
2038  393
2039  440
2040  409
2041  431
2042  446
2043  371
2044  413
2045  399
2046  427
2047  385
2048  422
2049  420
2050  382
2051  432
2052  401
2053  383
2054  405
2055  372
2056  425
2057  325
2058  389
2059  410
2060  351
2061  363
2062  385
2063  388
2064  365
2065  367
2066  386
2067  347
2068  397
2069  382
2070  380
2071  372
2072  379
2073  346
2074  355
2075  352
2076  347
2077  355
2078  320
2079  331
2080  372
2081  362
2082  332
2083  362
2084  338
2085  359
2086  373
2087  334
2088  343
2089  353
2090  351
2091  355
2092  332
2093  327
2094  321
2095  326
2096  317
2097  329
2098  318
2099  312
2100  332
2101  329
2102  341
2103  325
2104  322
2105  322
2106  355
2107  296
2108  298
2109  311
2110  316
2111  285
2112  323
2113  307
2114  321
2115  309
2116  309
2117  304
2118  264
2119  305
2120  286
2121  300
2122  281
2123  293
2124  265
2125  290
2126  269
2127  284
2128  276
2129  268
2130  290
2131  291
2132  268
2133  283
2134  299
2135  300
2136  284
2137  285
2138  261
2139  280
2140  292
2141  274
2142  276
2143  294
2144  263
2145  269
2146  286
2147  269
2148  257
2149  232
2150  259
2151  254
2152  286
2153  257
2154  247
2155  259
2156  252
2157  242
2158  271
2159  248
2160  257
2161  264
2162  242
2163  241
2164  247
2165  215
2166  239
2167  235
2168  241
2169  208
2170  235
2171  219
2172  229
2173  242
2174  249
2175  244
2176  211
2177  223
2178  221
2179  232
2180  217
2181  223
2182  204
2183  244
2184  237
2185  206
2186  223
2187  225
2188  219
2189  231
2190  235
2191  240
2192  199
2193  224
2194  200
2195  209
2196  211
2197  194
2198  215
2199  201
2200  191
2201  206
2202  201
2203  196
2204  211
2205  208
2206  194
2207  208
2208  195
2209  225
2210  180
2211  169
2212  201
2213  194
2214  195
2215  197
2216  183
2217  203
2218  212
2219  199
2220  191
2221  170
2222  185
2223  159
2224  204
2225  175
2226  174
2227  198
2228  155
2229  188
2230  187
2231  167
2232  184
2233  152
2234  184
2235  154
2236  162
2237  142
2238  175
2239  170
2240  169
2241  188
2242  178
2243  175
2244  181
2245  145
2246  154
2247  167
2248  151
2249  158
2250  184
2251  147
2252  160
2253  157
2254  150
2255  164
2256  166
2257  162
2258  175
2259  143
2260  141
2261  143
2262  123
2263  164
2264  129
2265  139
2266  147
2267  153
2268  137
2269  160
2270  136
2271  140
2272  141
2273  132
2274  137
2275  141
2276  134
2277  123
2278  134
2279  136
2280  110
2281  123
2282  135
2283  133
2284  123
2285  132
2286  115
2287  144
2288  139
2289  130
2290  162
2291  142
2292  102
2293  132
2294  131
2295  130
2296  129
2297  116
2298  134
2299  121
2300  127
2301  128
2302  119
2303  104
2304  117
2305  119
2306  111
2307  122
2308  115
2309  121
2310  104
2311  135
2312  114
2313  96
2314  128
2315  123
2316  142
2317  120
2318  133
2319  117
2320  101
2321  115
2322  98
2323  133
2324  98
2325  95
2326  106
2327  102
2328  111
2329  104
2330  112
2331  112
2332  109
2333  79
2334  119
2335  104
2336  106
2337  100
2338  104
2339  101
2340  106
2341  102
2342  106
2343  109
2344  83
2345  97
2346  111
2347  82
2348  85
2349  104
2350  114
2351  90
2352  92
2353  90
2354  89
2355  99
2356  87
2357  91
2358  92
2359  91
2360  90
2361  88
2362  84
2363  78
2364  103
2365  98
2366  90
2367  74
2368  84
2369  83
2370  82
2371  78
2372  94
2373  76
2374  85
2375  97
2376  81
2377  99
2378  88
2379  88
2380  114
2381  77
2382  94
2383  87
2384  77
2385  84
2386  93
2387  68
2388  81
2389  87
2390  77
2391  65
2392  85
2393  77
2394  58
2395  62
2396  89
2397  85
2398  74
2399  70
2400  71
2401  79
2402  86
2403  74
2404  74
2405  54
2406  55
2407  79
2408  68
2409  70
2410  55
2411  84
2412  76
2413  61
2414  47
2415  70
2416  68
2417  73
2418  66
2419  63
2420  65
2421  70
2422  71
2423  76
2424  62
2425  63
2426  61
2427  55
2428  64
2429  70
2430  54
2431  61
2432  61
2433  70
2434  69
2435  61
2436  70
2437  62
2438  69
2439  64
2440  57
2441  58
2442  64
2443  72
2444  61
2445  67
2446  70
2447  67
2448  70
2449  61
2450  53
2451  70
2452  73
2453  68
2454  46
2455  55
2456  68
2457  69
2458  61
2459  52
2460  60
2461  49
2462  60
2463  48
2464  52
2465  50
2466  45
2467  62
2468  47
2469  48
2470  57
2471  47
2472  48
2473  55
2474  41
2475  51
2476  65
2477  54
2478  48
2479  42
2480  59
2481  41
2482  50
2483  44
2484  58
2485  48
2486  48
2487  70
2488  54
2489  41
2490  52
2491  51
2492  44
2493  45
2494  49
2495  53
2496  44
2497  48
2498  54
2499  53
2500  51
2501  42
2502  51
2503  51
2504  45
2505  48
2506  34
2507  60
2508  56
2509  43
2510  32
2511  46
2512  53
2513  40
2514  44
2515  40
2516  47
2517  50
2518  40
2519  43
2520  49
2521  43
2522  38
2523  37
2524  40
2525  42
2526  46
2527  38
2528  41
2529  36
2530  43
2531  39
2532  29
2533  49
2534  42
2535  39
2536  62
2537  39
2538  46
2539  42
2540  46
2541  43
2542  42
2543  42
2544  36
2545  39
2546  35
2547  39
2548  46
2549  50
2550  37
2551  31
2552  41
2553  49
2554  37
2555  44
2556  38
2557  43
2558  41
2559  39
2560  32
2561  29
2562  41
2563  38
2564  37
2565  33
2566  38
2567  34
2568  32
2569  34
2570  35
2571  29
2572  38
2573  38
2574  34
2575  43
2576  33
2577  40
2578  36
2579  30
2580  36
2581  28
2582  36
2583  26
2584  35
2585  39
2586  31
2587  30
2588  26
2589  42
2590  26
2591  28
2592  32
2593  31
2594  29
2595  29
2596  24
2597  30
2598  26
2599  28
2600  35
2601  26
2602  28
2603  35
2604  23
2605  38
2606  28
2607  37
2608  23
2609  28
2610  26
2611  23
2612  30
2613  30
2614  29
2615  32
2616  26
2617  28
2618  34
2619  26
2620  26
2621  21
2622  29
2623  26
2624  21
2625  22
2626  33
2627  33
2628  35
2629  30
2630  33
2631  41
2632  40
2633  24
2634  31
2635  22
2636  16
2637  26
2638  28
2639  18
2640  32
2641  35
2642  25
2643  26
2644  21
2645  19
2646  37
2647  26
2648  35
2649  32
2650  22
2651  29
2652  22
2653  22
2654  18
2655  35
2656  23
2657  24
2658  22
2659  24
2660  29
2661  19
2662  24
2663  21
2664  21
2665  20
2666  31
2667  25
2668  29
2669  16
2670  32
2671  20
2672  26
2673  22
2674  18
2675  13
2676  24
2677  23
2678  17
2679  17
2680  19
2681  24
2682  19
2683  24
2684  18
2685  15
2686  27
2687  26
2688  20
2689  19
2690  11
2691  29
2692  21
2693  24
2694  19
2695  15
2696  15
2697  23
2698  19
2699  23
2700  17
2701  16
2702  21
2703  17
2704  19
2705  16
2706  12
2707  15
2708  15
2709  13
2710  11
2711  24
2712  18
2713  27
2714  16
2715  20
2716  23
2717  17
2718  17
2719  21
2720  21
2721  11
2722  29
2723  20
2724  19
2725  19
2726  24
2727  20
2728  20
2729  9
2730  16
2731  17
2732  18
2733  12
2734  15
2735  21
2736  18
2737  12
2738  15
2739  10
2740  17
2741  19
2742  18
2743  12
2744  25
2745  18
2746  14
2747  17
2748  18
2749  15
2750  16
2751  16
2752  16
2753  16
2754  12
2755  19
2756  26
2757  15
2758  15
2759  16
2760  19
2761  18
2762  16
2763  16
2764  15
2765  15
2766  16
2767  19
2768  22
2769  17
2770  10
2771  12
2772  18
2773  11
2774  17
2775  15
2776  15
2777  12
2778  11
2779  13
2780  11
2781  18
2782  22
2783  13
2784  19
2785  19
2786  15
2787  18
2788  14
2789  10
2790  9
2791  17
2792  15
2793  10
2794  10
2795  18
2796  10
2797  15
2798  12
2799  8
2800  16
2801  13
2802  13
2803  14
2804  12
2805  16
2806  15
2807  11
2808  16
2809  14
2810  13
2811  10
2812  10
2813  14
2814  10
2815  16
2816  7
2817  12
2818  13
2819  10
2820  16
2821  8
2822  9
2823  10
2824  11
2825  16
2826  23
2827  20
2828  12
2829  11
2830  14
2831  9
2832  6
2833  11
2834  10
2835  11
2836  11
2837  14
2838  8
2839  12
2840  13
2841  11
2842  11
2843  13
2844  18
2845  5
2846  11
2847  10
2848  10
2849  11
2850  13
2851  12
2852  12
2853  11
2854  14
2855  9
2856  6
2857  13
2858  5
2859  12
2860  7
2861  12
2862  9
2863  7
2864  21
2865  9
2866  10
2867  13
2868  10
2869  9
2870  6
2871  5
2872  14
2873  7
2874  17
2875  10
2876  13
2877  10
2878  5
2879  12
2880  8
2881  11
2882  8
2883  12
2884  3
2885  9
2886  13
2887  7
2888  11
2889  6
2890  11
2891  10
2892  8
2893  10
2894  10
2895  9
2896  11
2897  10
2898  11
2899  6
2900  5
2901  6
2902  10
2903  6
2904  10
2905  7
2906  5
2907  5
2908  10
2909  10
2910  12
2911  5
2912  12
2913  9
2914  17
2915  14
2916  3
2917  6
2918  11
2919  13
2920  12
2921  10
2922  8
2923  5
2924  8
2925  11
2926  13
2927  11
2928  5
2929  6
2930  5
2931  18
2932  6
2933  15
2934  14
2935  8
2936  11
2937  9
2938  3
2939  14
2940  9
2941  8
2942  2
2943  7
2944  13
2945  8
2946  6
2947  8
2948  8
2949  11
2950  6
2951  7
2952  13
2953  7
2954  8
2955  10
2956  15
2957  8
2958  9
2959  6
2960  9
2961  10
2962  10
2963  8
2964  3
2965  7
2966  5
2967  5
2968  13
2969  8
2970  7
2971  7
2972  7
2973  12
2974  10
2975  3
2976  7
2977  14
2978  8
2979  8
2980  12
2981  6
2982  2
2983  5
2984  6
2985  9
2986  11
2987  5
2988  6
2989  5
2990  8
2991  4
2992  6
2993  9
2994  3
2995  13
2996  10
2997  10
2998  3
2999  8
3000  8
3001  15
3002  5
3003  6
3004  4
3005  16
3006  9
3007  8
3008  8
3009  9
3010  10
3011  3
3012  5
3013  8
3014  6
3015  6
3016  7
3017  7
3018  9
3019  5
3020  3
3021  4
3022  6
3023  7
3024  4
3025  5
3026  2
3027  6
3028  4
3029  10
3030  5
3031  7
3032  10
3033  4
3034  4
3035  10
3036  7
3037  8
3038  6
3039  5
3040  4
3041  9
3042  5
3043  9
3044  9
3045  8
3046  8
3047  7
3048  2
3049  11
3050  8
3051  5
3052  4
3053  6
3054  12
3055  6
3056  5
3057  5
3058  7
3059  5
3060  7
3061  12
3062  3
3063  3
3064  6
3065  7
3066  6
3067  6
3068  6
3069  5
3070  7
3071  8
3072  7
3073  7
3074  11
3075  2
3076  3
3077  6
3078  3
3079  2
3080  4
3081  6
3082  6
3083  6
3084  5
3085  2
3086  5
3087  9
3088  6
3089  6
3090  1
3091  2
3092  2
3093  10
3094  5
3095  3
3096  7
3097  6
3098  4
3099  3
3100  7
3101  5
3102  10
3103  3
3104  4
3105  4
3106  6
3107  3
3108  6
3109  7
3110  3
3111  5
3112  3
3113  2
3114  6
3115  4
3116  7
3117  6
3118  6
3119  4
3120  2
3121  5
3122  4
3123  6
3124  8
3125  5
3126  7
3127  9
3128  6
3129  3
3130  5
3131  4
3132  7
3133  6
3134  8
3135  5
3136  4
3137  6
3138  7
3139  2
3140  4
3141  4
3142  6
3143  3
3144  4
3145  4
3146  4
3147  9
3148  5
3149  5
3150  1
3151  5
3152  4
3153  8
3154  9
3155  6
3156  8
3157  3
3158  8
3159  5
3160  8
3161  4
3162  4
3163  7
3164  8
3165  6
3166  2
3167  4
3168  5
3169  4
3170  1
3171  5
3172  3
3173  6
3174  6
3175  2
3176  6
3177  3
3178  4
3179  3
3180  4
3181  2
3182  6
3183  2
3184  7
3185  1
3186  2
3187  6
3188  9
3189  7
3190  4
3191  8
3192  1
3193  10
3194  7
3195  5
3196  5
3197  4
3198  5
3199  4
3200  5
3201  6
3202  3
3203  2
3204  7
3205  8
3206  2
3207  6
3208  4
3209  3
3210  5
3211  8
3212  7
3213  9
3214  5
3215  4
3216  7
3217  2
3218  7
3219  7
3220  2
3221  9
3222  10
3223  4
3224  2
3225  4
3226  6
3227  4
3228  8
3229  10
3230  4
3231  2
3232  8
3233  4
3234  8
3235  1
3236  3
3237  6
3238  6
3239  5
3240  4
3241  7
3242  4
3243  5
3244  4
3245  5
3246  8
3247  2
3248  3
3249  4
3250  2
3251  6
3252  6
3253  3
3254  4
3255  10
3256  2
3257  4
3258  1
3259  3
3260  4
3261  5
3262  5
3263  3
3264  4
3265  7
3266  5
3267  2
3268  4
3269  5
3270  3
3271  6
3272  5
3273  6
3274  6
3275  1
3276  3
3277  3
3278  3
3279  6
3280  4
3281  4
3282  4
3283  2
3284  2
3285  1
3286  5
3287  2
3288  4
3289  2
3290  4
3291  3
3292  2
3293  3
3294  9
3295  3
3296  7
3297  2
3298  7
3299  5
3300  2
3301  3
3302  2
3303  2
3304  4
3305  3
3306  1
3307  6
3308  3
3309  1
3310  9
3311  3
3312  2
3313  6
3314  4
3315  2
3316  7
3317  3
3318  2
3319  7
3320  2
3321  2
3322  1
3323  4
3324  7
3325  6
3326  6
3327  6
3328  6
3329  7
3330  0
3331  1
3332  9
3333  2
3334  1
3335  4
3336  4
3337  6
3338  4
3339  2
3340  2
3341  9
3342  3
3343  3
3344  9
3345  4
3346  5
3347  4
3348  4
3349  1
3350  2
3351  7
3352  4
3353  1
3354  5
3355  5
3356  3
3357  6
3358  1
3359  1
3360  4
3361  4
3362  8
3363  1
3364  5
3365  1
3366  4
3367  3
3368  5
3369  7
3370  1
3371  2
3372  3
3373  5
3374  6
3375  2
3376  3
3377  3
3378  4
3379  3
3380  3
3381  3
3382  4
3383  3
3384  2
3385  5
3386  3
3387  2
3388  7
3389  2
3390  7
3391  4
3392  5
3393  2
3394  4
3395  5
3396  7
3397  4
3398  1
3399  4
3400  2
3401  6
3402  2
3403  1
3404  6
3405  4
3406  5
3407  4
3408  4
3409  3
3410  3
3411  8
3412  5
3413  5
3414  7
3415  4
3416  3
3417  4
3418  4
3419  4
3420  4
3421  3
3422  1
3423  2
3424  4
3425  5
3426  5
3427  1
3428  4
3429  2
3430  7
3431  3
3432  2
3433  4
3434  7
3435  6
3436  5
3437  1
3438  7
3439  7
3440  5
3441  4
3442  1
3443  0
3444  4
3445  2
3446  0
3447  7
3448  3
3449  3
3450  2
3451  3
3452  3
3453  4
3454  1
3455  4
3456  3
3457  4
3458  1
3459  3
3460  1
3461  3
3462  3
3463  5
3464  6
3465  5
3466  2
3467  1
3468  4
3469  1
3470  4
3471  3
3472  2
3473  3
3474  2
3475  4
3476  5
3477  3
3478  3
3479  0
3480  0
3481  5
3482  5
3483  6
3484  3
3485  3
3486  1
3487  5
3488  4
3489  5
3490  2
3491  2
3492  7
3493  4
3494  7
3495  5
3496  5
3497  3
3498  5
3499  6
3500  1
3501  3
3502  1
3503  2
3504  5
3505  6
3506  1
3507  5
3508  4
3509  8
3510  5
3511  3
3512  5
3513  2
3514  6
3515  4
3516  1
3517  2
3518  2
3519  5
3520  7
3521  4
3522  6
3523  1
3524  4
3525  4
3526  3
3527  2
3528  1
3529  9
3530  3
3531  6
3532  2
3533  8
3534  1
3535  4
3536  4
3537  3
3538  1
3539  2
3540  1
3541  6
3542  2
3543  7
3544  4
3545  2
3546  5
3547  4
3548  4
3549  5
3550  1
3551  9
3552  1
3553  2
3554  4
3555  4
3556  3
3557  5
3558  3
3559  3
3560  2
3561  2
3562  6
3563  1
3564  4
3565  7
3566  7
3567  2
3568  2
3569  6
3570  3
3571  3
3572  5
3573  5
3574  4
3575  6
3576  2
3577  3
3578  2
3579  5
3580  4
3581  6
3582  4
3583  3
3584  3
3585  2
3586  1
3587  7
3588  3
3589  2
3590  3
3591  2
3592  6
3593  5
3594  5
3595  1
3596  4
3597  9
3598  7
3599  3
3600  2
3601  1
3602  1
3603  6
3604  4
3605  4
3606  2
3607  5
3608  5
3609  2
3610  1
3611  6
3612  5
3613  5
3614  3
3615  3
3616  3
3617  9
3618  5
3619  2
3620  4
3621  6
3622  2
3623  5
3624  7
3625  2
3626  0
3627  2
3628  3
3629  5
3630  6
3631  6
3632  3
3633  2
3634  7
3635  3
3636  6
3637  4
3638  6
3639  9
3640  6
3641  5
3642  4
3643  2
3644  3
3645  4
3646  1
3647  4
3648  3
3649  0
3650  5
3651  5
3652  1
3653  5
3654  3
3655  2
3656  4
3657  5
3658  3
3659  3
3660  5
3661  4
3662  4
3663  6
3664  4
3665  9
3666  6
3667  1
3668  4
3669  5
3670  7
3671  3
3672  1
3673  4
3674  5
3675  5
3676  5
3677  1
3678  6
3679  0
3680  3
3681  5
3682  2
3683  1
3684  8
3685  6
3686  1
3687  5
3688  9
3689  8
3690  3
3691  4
3692  4
3693  7
3694  4
3695  4
3696  8
3697  4
3698  8
3699  5
3700  6
3701  6
3702  3
3703  2
3704  4
3705  0
3706  5
3707  3
3708  1
3709  2
3710  8
3711  8
3712  4
3713  5
3714  3
3715  6
3716  8
3717  4
3718  4
3719  7
3720  1
3721  3
3722  3
3723  5
3724  4
3725  2
3726  5
3727  5
3728  4
3729  2
3730  6
3731  4
3732  1
3733  2
3734  5
3735  5
3736  3
3737  7
3738  3
3739  4
3740  12
3741  3
3742  4
3743  5
3744  5
3745  1
3746  5
3747  4
3748  4
3749  6
3750  2
3751  5
3752  8
3753  5
3754  3
3755  1
3756  2
3757  2
3758  4
3759  1
3760  4
3761  6
3762  5
3763  2
3764  4
3765  3
3766  6
3767  7
3768  3
3769  4
3770  4
3771  4
3772  3
3773  5
3774  4
3775  4
3776  5
3777  3
3778  5
3779  1
3780  4
3781  7
3782  3
3783  2
3784  5
3785  2
3786  7
3787  2
3788  4
3789  2
3790  5
3791  8
3792  6
3793  2
3794  5
3795  4
3796  4
3797  9
3798  7
3799  5
3800  1
3801  4
3802  3
3803  3
3804  2
3805  6
3806  3
3807  4
3808  5
3809  3
3810  2
3811  3
3812  5
3813  6
3814  5
3815  0
3816  8
3817  4
3818  3
3819  3
3820  5
3821  6
3822  7
3823  6
3824  5
3825  4
3826  3
3827  4
3828  8
3829  3
3830  4
3831  1
3832  3
3833  3
3834  1
3835  7
3836  3
3837  3
3838  6
3839  9
3840  0
3841  0
3842  0
3843  0
3844  0
3845  0
3846  0
3847  0
3848  0
3849  0
3850  0
3851  0
3852  0
3853  0
3854  0
3855  0
3856  0
3857  0
3858  0
3859  0
3860  0
3861  0
3862  0
3863  0
3864  0
3865  0
3866  0
3867  0
3868  0
3869  0
3870  0
3871  0
3872  0
3873  0
3874  0
3875  0
3876  0
3877  0
3878  0
3879  0
3880  0
3881  0
3882  0
3883  0
3884  0
3885  0
3886  0
3887  0
3888  0
3889  0
3890  0
3891  0
3892  0
3893  0
3894  0
3895  0
3896  0
3897  0
3898  0
3899  0
3900  0
3901  0
3902  0
3903  0
3904  0
3905  0
3906  0
3907  0
3908  0
3909  0
3910  0
3911  0
3912  0
3913  0
3914  0
3915  0
3916  0
3917  0
3918  0
3919  0
3920  0
3921  0
3922  0
3923  0
3924  0
3925  0
3926  0
3927  0
3928  0
3929  0
3930  0
3931  0
3932  0
3933  0
3934  0
3935  0
3936  0
3937  0
3938  0
3939  0
3940  0
3941  0
3942  0
3943  0
3944  0
3945  0
3946  0
3947  0
3948  0
3949  0
3950  0
3951  0
3952  0
3953  0
3954  0
3955  0
3956  0
3957  0
3958  0
3959  0
3960  0
3961  0
3962  0
3963  0
3964  0
3965  0
3966  0
3967  0
3968  0
3969  0
3970  0
3971  0
3972  0
3973  0
3974  0
3975  0
3976  0
3977  0
3978  0
3979  0
3980  0
3981  0
3982  0
3983  0
3984  0
3985  0
3986  0
3987  0
3988  0
3989  0
3990  0
3991  0
3992  0
3993  0
3994  0
3995  0
3996  0
3997  0
3998  0
3999  0
4000  0
4001  0
4002  0
4003  0
4004  0
4005  0
4006  0
4007  0
4008  0
4009  0
4010  0
4011  0
4012  0
4013  0
4014  0
4015  0
4016  0
4017  0
4018  0
4019  0
4020  0
4021  0
4022  0
4023  0
4024  0
4025  0
4026  0
4027  0
4028  0
4029  0
4030  0
4031  0
4032  0
4033  0
4034  0
4035  0
4036  0
4037  0
4038  0
4039  0
4040  0
4041  0
4042  0
4043  0
4044  0
4045  0
4046  0
4047  0
4048  0
4049  0
4050  0
4051  0
4052  0
4053  0
4054  0
4055  0
4056  0
4057  0
4058  0
4059  0
4060  0
4061  0
4062  0
4063  0
4064  0
4065  0
4066  0
4067  0
4068  0
4069  0
4070  0
4071  0
4072  0
4073  0
4074  0
4075  0
4076  0
4077  0
4078  0
4079  0
4080  0
4081  0
4082  0
4083  0
4084  0
4085  0
4086  0
4087  0
4088  0
4089  0
4090  0
4091  0
4092  0
4093  0
4094  0
4095  0
