0  631
1  770
2  939
3  1073
4  1233
5  1366
6  1558
7  1771
8  1871
9  1989
10  2144
11  2364
12  2408
13  2543
14  2538
15  2452
16  2472
17  2395
18  2310
19  2224
20  2019
21  1939
22  1782
23  1514
24  1416
25  1162
26  1074
27  887
28  759
29  626
30  497
31  391
32  370
33  269
34  224
35  166
36  122
37  83
38  70
39  63
40  34
41  22
42  24
43  17
44  5
45  5
46  4
47  4
48  2
49  1
50  1
51  0
52  0
53  1
54  0
55  0
56  0
57  0
58  0
59  1
60  1
61  0
62  0
63  0
64  0
65  0
66  0
67  0
68  0
69  0
70  0
71  0
72  0
73  0
74  0
75  0
76  0
77  0
78  0
79  0
80  0
81  0
82  1
83  0
84  0
85  0
86  1
87  0
88  0
89  0
90  0
91  0
92  0
93  0
94  0
95  1
96  0
97  0
98  1
99  0
100  1
101  0
102  0
103  0
104  0
105  0
106  0
107  0
108  0
109  0
110  0
111  0
112  1
113  0
114  0
115  0
116  0
117  0
118  0
119  0
120  0
121  0
122  0
123  0
124  0
125  0
126  0
127  0
128  0
129  0
130  0
131  0
132  0
133  0
134  0
135  0
136  0
137  0
138  0
139  0
140  0
141  0
142  0
143  0
144  0
145  0
146  0
147  0
148  0
149  0
150  0
151  0
152  0
153  0
154  0
155  0
156  0
157  0
158  0
159  0
160  0
161  0
162  0
163  0
164  0
165  0
166  0
167  0
168  0
169  0
170  0
171  0
172  0
173  0
174  0
175  0
176  1
177  0
178  0
179  0
180  1
181  0
182  0
183  1
184  0
185  0
186  1
187  5
188  6
189  1
190  3
191  4
192  4
193  10
194  17
195  19
196  31
197  43
198  49
199  58
200  77
201  113
202  101
203  140
204  148
205  197
206  222
207  238
208  275
209  312
210  348
211  390
212  383
213  430
214  466
215  540
216  523
217  563
218  563
219  582
220  605
221  528
222  549
223  561
224  523
225  513
226  490
227  489
228  441
229  406
230  334
231  366
232  341
233  303
234  280
235  247
236  229
237  173
238  182
239  170
240  187
241  147
242  184
243  135
244  141
245  130
246  138
247  129
248  113
249  145
250  129
251  133
252  129
253  105
254  118
255  111
256  116
257  104
258  114
259  121
260  127
261  115
262  124
263  93
264  127
265  136
266  130
267  153
268  120
269  99
270  137
271  143
272  105
273  123
274  110
275  113
276  130
277  132
278  138
279  95
280  113
281  127
282  116
283  119
284  137
285  141
286  114
287  126
288  129
289  148
290  128
291  128
292  131
293  141
294  117
295  137
296  126
297  119
298  127
299  106
300  146
301  138
302  127
303  132
304  139
305  133
306  129
307  138
308  118
309  137
310  121
311  131
312  110
313  132
314  133
315  124
316  113
317  119
318  125
319  124
320  122
321  130
322  100
323  147
324  108
325  150
326  112
327  140
328  124
329  137
330  127
331  115
332  140
333  128
334  134
335  108
336  135
337  132
338  137
339  112
340  115
341  134
342  115
343  125
344  125
345  127
346  130
347  128
348  119
349  113
350  129
351  138
352  133
353  123
354  118
355  138
356  135
357  130
358  139
359  131
360  139
361  120
362  154
363  135
364  125
365  117
366  114
367  130
368  106
369  126
370  104
371  136
372  127
373  132
374  118
375  138
376  136
377  153
378  145
379  137
380  135
381  117
382  133
383  130
384  126
385  124
386  115
387  122
388  139
389  131
390  125
391  137
392  157
393  130
394  128
395  123
396  135
397  122
398  150
399  127
400  122
401  146
402  153
403  146
404  123
405  118
406  127
407  153
408  135
409  143
410  137
411  128
412  151
413  104
414  129
415  134
416  130
417  133
418  140
419  134
420  145
421  131
422  124
423  133
424  129
425  124
426  135
427  124
428  109
429  133
430  130
431  146
432  143
433  125
434  134
435  140
436  123
437  129
438  143
439  107
440  133
441  112
442  160
443  114
444  139
445  143
446  114
447  131
448  130
449  135
450  135
451  132
452  122
453  137
454  140
455  128
456  124
457  125
458  138
459  142
460  129
461  119
462  147
463  130
464  133
465  135
466  125
467  148
468  103
469  131
470  153
471  152
472  128
473  113
474  135
475  138
476  155
477  137
478  142
479  141
480  126
481  141
482  134
483  137
484  137
485  134
486  133
487  164
488  127
489  131
490  157
491  139
492  142
493  130
494  123
495  128
496  149
497  123
498  149
499  127
500  141
501  140
502  155
503  137
504  142
505  139
506  133
507  131
508  153
509  130
510  122
511  129
512  128
513  116
514  130
515  142
516  157
517  144
518  142
519  142
520  144
521  140
522  138
523  133
524  112
525  121
526  136
527  130
528  125
529  146
530  144
531  148
532  150
533  145
534  147
535  130
536  137
537  123
538  153
539  138
540  133
541  137
542  131
543  139
544  151
545  133
546  130
547  130
548  147
549  130
550  166
551  122
552  124
553  144
554  125
555  157
556  143
557  135
558  153
559  112
560  134
561  117
562  132
563  121
564  154
565  142
566  125
567  139
568  138
569  138
570  142
571  116
572  127
573  128
574  124
575  122
576  141
577  138
578  156
579  120
580  150
581  126
582  146
583  123
584  145
585  145
586  137
587  126
588  128
589  129
590  119
591  121
592  140
593  147
594  130
595  125
596  120
597  127
598  135
599  130
600  131
601  149
602  140
603  128
604  158
605  125
606  132
607  116
608  136
609  136
610  150
611  113
612  132
613  128
614  151
615  129
616  138
617  128
618  133
619  122
620  148
621  122
622  120
623  114
624  134
625  118
626  108
627  107
628  116
629  143
630  112
631  116
632  121
633  132
634  126
635  126
636  124
637  138
638  122
639  141
640  110
641  111
642  116
643  130
644  119
645  110
646  129
647  124
648  114
649  126
650  125
651  110
652  128
653  132
654  137
655  131
656  137
657  134
658  123
659  105
660  122
661  128
662  128
663  126
664  117
665  139
666  141
667  145
668  123
669  108
670  123
671  141
672  122
673  128
674  118
675  120
676  142
677  115
678  128
679  113
680  133
681  119
682  108
683  127
684  142
685  128
686  137
687  125
688  118
689  140
690  127
691  134
692  96
693  114
694  116
695  136
696  138
697  123
698  133
699  124
700  130
701  105
702  126
703  101
704  130
705  98
706  104
707  128
708  110
709  121
710  120
711  110
712  127
713  119
714  103
715  121
716  117
717  125
718  114
719  102
720  97
721  103
722  113
723  116
724  94
725  103
726  125
727  94
728  127
729  111
730  116
731  123
732  118
733  123
734  114
735  103
736  117
737  136
738  123
739  116
740  108
741  105
742  100
743  126
744  122
745  104
746  102
747  116
748  95
749  117
750  124
751  114
752  96
753  123
754  109
755  111
756  97
757  110
758  117
759  119
760  105
761  116
762  114
763  140
764  122
765  89
766  100
767  116
768  129
769  97
770  108
771  123
772  91
773  102
774  92
775  92
776  106
777  114
778  112
779  98
780  98
781  108
782  87
783  105
784  102
785  102
786  94
787  78
788  108
789  96
790  114
791  85
792  93
793  104
794  83
795  86
796  89
797  79
798  96
799  115
800  91
801  103
802  98
803  92
804  120
805  108
806  91
807  107
808  102
809  76
810  90
811  83
812  98
813  107
814  95
815  102
816  85
817  93
818  105
819  85
820  92
821  87
822  90
823  71
824  85
825  105
826  94
827  78
828  84
829  91
830  88
831  93
832  84
833  89
834  84
835  86
836  84
837  95
838  93
839  85
840  91
841  84
842  102
843  87
844  96
845  78
846  85
847  98
848  78
849  82
850  99
851  68
852  84
853  88
854  102
855  94
856  97
857  109
858  84
859  82
860  94
861  75
862  112
863  74
864  72
865  68
866  97
867  90
868  85
869  80
870  83
871  87
872  96
873  81
874  74
875  68
876  91
877  90
878  90
879  75
880  66
881  75
882  90
883  71
884  88
885  80
886  86
887  62
888  67
889  68
890  76
891  60
892  74
893  90
894  69
895  80
896  67
897  96
898  76
899  68
900  71
901  71
902  65
903  72
904  74
905  74
906  77
907  68
908  76
909  66
910  64
911  72
912  67
913  65
914  69
915  68
916  75
917  61
918  59
919  63
920  51
921  61
922  60
923  60
924  68
925  54
926  54
927  63
928  66
929  63
930  73
931  65
932  68
933  64
934  71
935  58
936  73
937  71
938  61
939  56
940  47
941  54
942  57
943  58
944  59
945  45
946  74
947  52
948  45
949  63
950  64
951  65
952  59
953  48
954  57
955  47
956  40
957  46
958  50
959  46
960  48
961  53
962  44
963  42
964  36
965  50
966  37
967  54
968  47
969  49
970  59
971  55
972  39
973  45
974  46
975  46
976  46
977  42
978  39
979  45
980  38
981  36
982  47
983  47
984  52
985  43
986  47
987  46
988  47
989  46
990  32
991  38
992  33
993  29
994  37
995  45
996  43
997  46
998  49
999  46
1000  47
1001  28
1002  47
1003  44
1004  34
1005  38
1006  42
1007  34
1008  31
1009  38
1010  35
1011  29
1012  33
1013  44
1014  45
1015  31
1016  41
1017  35
1018  39
1019  37
1020  27
1021  36
1022  31
1023  32
1024  38
1025  32
1026  31
1027  42
1028  30
1029  25
1030  34
1031  32
1032  25
1033  42
1034  23
1035  40
1036  38
1037  30
1038  36
1039  34
1040  27
1041  28
1042  30
1043  40
1044  35
1045  26
1046  37
1047  35
1048  34
1049  31
1050  33
1051  31
1052  22
1053  32
1054  27
1055  37
1056  26
1057  39
1058  39
1059  37
1060  37
1061  20
1062  36
1063  29
1064  28
1065  38
1066  28
1067  25
1068  31
1069  30
1070  40
1071  36
1072  24
1073  39
1074  37
1075  56
1076  39
1077  32
1078  27
1079  31
1080  39
1081  37
1082  29
1083  34
1084  41
1085  48
1086  34
1087  35
1088  30
1089  32
1090  37
1091  29
1092  38
1093  25
1094  26
1095  25
1096  28
1097  30
1098  33
1099  31
1100  33
1101  29
1102  27
1103  30
1104  39
1105  22
1106  33
1107  24
1108  25
1109  31
1110  28
1111  31
1112  31
1113  28
1114  39
1115  28
1116  30
1117  32
1118  35
1119  28
1120  26
1121  41
1122  26
1123  24
1124  27
1125  29
1126  36
1127  24
1128  31
1129  33
1130  32
1131  27
1132  29
1133  33
1134  37
1135  37
1136  37
1137  45
1138  32
1139  34
1140  29
1141  30
1142  28
1143  36
1144  37
1145  32
1146  38
1147  29
1148  35
1149  34
1150  40
1151  33
1152  39
1153  34
1154  45
1155  36
1156  29
1157  34
1158  23
1159  42
1160  25
1161  20
1162  24
1163  25
1164  32
1165  24
1166  22
1167  22
1168  24
1169  29
1170  37
1171  41
1172  27
1173  25
1174  33
1175  27
1176  16
1177  26
1178  25
1179  26
1180  26
1181  25
1182  19
1183  31
1184  27
1185  34
1186  24
1187  26
1188  30
1189  19
1190  28
1191  25
1192  23
1193  19
1194  16
1195  29
1196  21
1197  18
1198  32
1199  24
1200  24
1201  21
1202  32
1203  17
1204  31
1205  25
1206  26
1207  26
1208  22
1209  23
1210  25
1211  25
1212  30
1213  16
1214  32
1215  23
1216  26
1217  24
1218  19
1219  28
1220  24
1221  27
1222  19
1223  21
1224  15
1225  27
1226  34
1227  26
1228  29
1229  24
1230  16
1231  23
1232  27
1233  30
1234  24
1235  24
1236  25
1237  26
1238  32
1239  20
1240  29
1241  26
1242  25
1243  28
1244  28
1245  32
1246  28
1247  19
1248  34
1249  25
1250  22
1251  33
1252  15
1253  19
1254  34
1255  33
1256  27
1257  23
1258  24
1259  29
1260  20
1261  25
1262  20
1263  26
1264  28
1265  25
1266  22
1267  26
1268  26
1269  31
1270  25
1271  25
1272  23
1273  23
1274  21
1275  19
1276  32
1277  13
1278  30
1279  26
1280  31
1281  21
1282  32
1283  29
1284  29
1285  35
1286  25
1287  27
1288  25
1289  19
1290  32
1291  33
1292  30
1293  22
1294  30
1295  30
1296  34
1297  32
1298  28
1299  38
1300  16
1301  29
1302  32
1303  21
1304  40
1305  27
1306  35
1307  31
1308  29
1309  38
1310  37
1311  36
1312  31
1313  29
1314  35
1315  30
1316  24
1317  32
1318  38
1319  34
1320  29
1321  27
1322  34
1323  36
1324  34
1325  23
1326  35
1327  41
1328  27
1329  28
1330  29
1331  40
1332  26
1333  38
1334  26
1335  35
1336  34
1337  38
1338  20
1339  30
1340  30
1341  27
1342  32
1343  32
1344  34
1345  31
1346  35
1347  28
1348  27
1349  27
1350  34
1351  36
1352  32
1353  45
1354  41
1355  18
1356  42
1357  47
1358  27
1359  37
1360  41
1361  33
1362  31
1363  22
1364  31
1365  30
1366  41
1367  34
1368  30
1369  37
1370  39
1371  39
1372  37
1373  29
1374  34
1375  35
1376  39
1377  37
1378  31
1379  38
1380  38
1381  29
1382  34
1383  33
1384  32
1385  44
1386  54
1387  42
1388  38
1389  31
1390  43
1391  39
1392  34
1393  40
1394  38
1395  35
1396  57
1397  37
1398  34
1399  36
1400  37
1401  42
1402  41
1403  29
1404  32
1405  42
1406  39
1407  45
1408  52
1409  33
1410  38
1411  50
1412  43
1413  30
1414  47
1415  35
1416  48
1417  41
1418  49
1419  38
1420  44
1421  47
1422  53
1423  44
1424  37
1425  29
1426  43
1427  38
1428  43
1429  56
1430  41
1431  44
1432  32
1433  45
1434  40
1435  48
1436  35
1437  35
1438  40
1439  44
1440  56
1441  43
1442  42
1443  43
1444  31
1445  42
1446  36
1447  48
1448  45
1449  45
1450  37
1451  38
1452  33
1453  36
1454  43
1455  56
1456  50
1457  44
1458  44
1459  48
1460  44
1461  51
1462  58
1463  48
1464  55
1465  43
1466  50
1467  38
1468  39
1469  40
1470  34
1471  43
1472  53
1473  40
1474  49
1475  55
1476  38
1477  45
1478  50
1479  50
1480  59
1481  43
1482  53
1483  62
1484  40
1485  45
1486  47
1487  52
1488  42
1489  49
1490  41
1491  46
1492  38
1493  51
1494  43
1495  54
1496  42
1497  41
1498  43
1499  52
1500  47
1501  52
1502  53
1503  59
1504  55
1505  56
1506  62
1507  43
1508  47
1509  44
1510  57
1511  58
1512  56
1513  55
1514  42
1515  44
1516  50
1517  53
1518  62
1519  52
1520  53
1521  64
1522  40
1523  38
1524  56
1525  61
1526  57
1527  53
1528  52
1529  43
1530  58
1531  50
1532  45
1533  51
1534  56
1535  70
1536  52
1537  53
1538  58
1539  55
1540  48
1541  55
1542  63
1543  53
1544  52
1545  48
1546  53
1547  62
1548  54
1549  53
1550  62
1551  53
1552  51
1553  50
1554  52
1555  60
1556  78
1557  51
1558  53
1559  56
1560  54
1561  41
1562  60
1563  55
1564  58
1565  59
1566  54
1567  68
1568  62
1569  50
1570  48
1571  52
1572  47
1573  68
1574  56
1575  64
1576  56
1577  54
1578  61
1579  72
1580  49
1581  67
1582  68
1583  62
1584  65
1585  61
1586  53
1587  47
1588  83
1589  64
1590  68
1591  50
1592  63
1593  73
1594  61
1595  56
1596  56
1597  60
1598  63
1599  78
1600  72
1601  60
1602  68
1603  57
1604  57
1605  63
1606  75
1607  75
1608  74
1609  64
1610  70
1611  69
1612  69
1613  55
1614  62
1615  62
1616  67
1617  64
1618  72
1619  59
1620  69
1621  64
1622  59
1623  78
1624  58
1625  52
1626  70
1627  62
1628  83
1629  78
1630  79
1631  71
1632  69
1633  78
1634  66
1635  77
1636  70
1637  75
1638  77
1639  94
1640  77
1641  78
1642  92
1643  73
1644  83
1645  79
1646  93
1647  78
1648  90
1649  78
1650  79
1651  89
1652  106
1653  97
1654  100
1655  92
1656  113
1657  95
1658  118
1659  129
1660  118
1661  128
1662  146
1663  136
1664  146
1665  190
1666  225
1667  228
1668  284
1669  291
1670  328
1671  410
1672  457
1673  494
1674  593
1675  702
1676  738
1677  829
1678  889
1679  996
1680  1194
1681  1301
1682  1326
1683  1479
1684  1598
1685  1694
1686  1840
1687  1779
1688  1793
1689  1877
1690  1853
1691  1954
1692  1962
1693  1907
1694  1764
1695  1792
1696  1769
1697  1698
1698  1574
1699  1502
1700  1495
1701  1358
1702  1307
1703  1140
1704  1103
1705  998
1706  938
1707  840
1708  737
1709  702
1710  659
1711  608
1712  566
1713  511
1714  507
1715  430
1716  410
1717  381
1718  345
1719  349
1720  322
1721  259
1722  255
1723  250
1724  247
1725  237
1726  223
1727  218
1728  221
1729  191
1730  170
1731  147
1732  145
1733  153
1734  135
1735  123
1736  133
1737  134
1738  125
1739  133
1740  113
1741  127
1742  116
1743  108
1744  103
1745  72
1746  94
1747  92
1748  94
1749  97
1750  84
1751  96
1752  85
1753  81
1754  85
1755  87
1756  56
1757  82
1758  97
1759  102
1760  89
1761  95
1762  93
1763  80
1764  75
1765  73
1766  75
1767  94
1768  83
1769  74
1770  88
1771  70
1772  65
1773  89
1774  81
1775  75
1776  81
1777  87
1778  81
1779  81
1780  75
1781  93
1782  81
1783  87
1784  77
1785  86
1786  78
1787  70
1788  64
1789  83
1790  68
1791  77
1792  71
1793  84
1794  76
1795  92
1796  87
1797  83
1798  77
1799  81
1800  102
1801  84
1802  96
1803  84
1804  89
1805  79
1806  76
1807  75
1808  84
1809  111
1810  85
1811  78
1812  76
1813  75
1814  93
1815  102
1816  81
1817  85
1818  83
1819  80
1820  85
1821  89
1822  88
1823  93
1824  95
1825  97
1826  102
1827  81
1828  83
1829  88
1830  89
1831  102
1832  90
1833  88
1834  78
1835  107
1836  81
1837  92
1838  78
1839  88
1840  86
1841  101
1842  79
1843  90
1844  110
1845  104
1846  109
1847  92
1848  83
1849  94
1850  91
1851  89
1852  78
1853  79
1854  110
1855  89
1856  104
1857  112
1858  98
1859  107
1860  102
1861  85
1862  96
1863  80
1864  76
1865  95
1866  90
1867  85
1868  89
1869  100
1870  89
1871  99
1872  96
1873  87
1874  100
1875  108
1876  92
1877  89
1878  99
1879  103
1880  94
1881  77
1882  105
1883  101
1884  113
1885  105
1886  92
1887  73
1888  82
1889  89
1890  101
1891  97
1892  101
1893  100
1894  102
1895  98
1896  103
1897  94
1898  110
1899  91
1900  82
1901  95
1902  86
1903  94
1904  93
1905  92
1906  97
1907  91
1908  98
1909  88
1910  92
1911  100
1912  100
1913  96
1914  95
1915  105
1916  102
1917  102
1918  110
1919  104
1920  95
1921  100
1922  104
1923  112
1924  114
1925  93
1926  121
1927  107
1928  91
1929  106
1930  102
1931  98
1932  86
1933  94
1934  114
1935  84
1936  87
1937  86
1938  86
1939  100
1940  108
1941  97
1942  106
1943  108
1944  97
1945  106
1946  101
1947  92
1948  103
1949  91
1950  127
1951  119
1952  99
1953  137
1954  107
1955  86
1956  97
1957  101
1958  88
1959  126
1960  104
1961  109
1962  107
1963  107
1964  101
1965  112
1966  113
1967  111
1968  102
1969  107
1970  105
1971  91
1972  99
1973  116
1974  109
1975  111
1976  104
1977  102
1978  118
1979  113
1980  98
1981  105
1982  110
1983  95
1984  101
1985  107
1986  108
1987  104
1988  120
1989  96
1990  110
1991  114
1992  109
1993  104
1994  108
1995  106
1996  95
1997  120
1998  102
1999  114
2000  111
2001  95
2002  126
2003  94
2004  128
2005  116
2006  123
2007  119
2008  110
2009  106
2010  126
2011  95
2012  106
2013  120
2014  90
2015  99
2016  115
2017  121
2018  125
2019  102
2020  121
2021  125
2022  132
2023  116
2024  128
2025  102
2026  99
2027  115
2028  120
2029  99
2030  113
2031  129
2032  130
2033  115
2034  98
2035  123
2036  125
2037  104
2038  126
2039  109
2040  137
2041  135
2042  125
2043  122
2044  130
2045  137
2046  129
2047  100
2048  121
2049  126
2050  120
2051  134
2052  115
2053  113
2054  125
2055  89
2056  106
2057  122
2058  124
2059  107
2060  93
2061  120
2062  94
2063  99
2064  126
2065  126
2066  114
2067  117
2068  104
2069  124
2070  120
2071  120
2072  113
2073  120
2074  144
2075  114
2076  116
2077  123
2078  122
2079  112
2080  115
2081  120
2082  111
2083  126
2084  134
2085  135
2086  122
2087  131
2088  121
2089  111
2090  118
2091  126
2092  109
2093  116
2094  113
2095  128
2096  113
2097  125
2098  113
2099  118
2100  139
2101  105
2102  114
2103  121
2104  126
2105  134
2106  126
2107  119
2108  104
2109  132
2110  116
2111  111
2112  153
2113  116
2114  124
2115  112
2116  120
2117  131
2118  116
2119  110
2120  106
2121  124
2122  126
2123  108
2124  124
2125  138
2126  119
2127  132
2128  134
2129  126
2130  134
2131  123
2132  137
2133  133
2134  111
2135  106
2136  110
2137  131
2138  116
2139  120
2140  107
2141  117
2142  136
2143  119
2144  104
2145  105
2146  118
2147  104
2148  114
2149  132
2150  112
2151  147
2152  112
2153  110
2154  120
2155  129
2156  126
2157  97
2158  127
2159  118
2160  137
2161  144
2162  123
2163  97
2164  128
2165  132
2166  137
2167  112
2168  123
2169  109
2170  134
2171  134
2172  130
2173  130
2174  109
2175  118
2176  129
2177  133
2178  113
2179  130
2180  123
2181  111
2182  117
2183  119
2184  126
2185  135
2186  106
2187  112
2188  115
2189  138
2190  129
2191  132
2192  100
2193  121
2194  110
2195  132
2196  140
2197  119
2198  119
2199  144
2200  130
2201  113
2202  139
2203  151
2204  126
2205  135
2206  123
2207  121
2208  126
2209  104
2210  115
2211  120
2212  120
2213  131
2214  128
2215  133
2216  128
2217  109
2218  119
2219  127
2220  142
2221  149
2222  141
2223  110
2224  136
2225  121
2226  132
2227  117
2228  130
2229  130
2230  130
2231  109
2232  110
2233  135
2234  120
2235  109
2236  150
2237  113
2238  118
2239  162
2240  122
2241  145
2242  128
2243  119
2244  114
2245  111
2246  137
2247  115
2248  153
2249  122
2250  127
2251  148
2252  146
2253  138
2254  112
2255  140
2256  137
2257  155
2258  134
2259  134
2260  128
2261  120
2262  136
2263  127
2264  147
2265  128
2266  134
2267  119
2268  125
2269  127
2270  127
2271  126
2272  119
2273  128
2274  139
2275  141
2276  112
2277  139
2278  136
2279  144
2280  138
2281  122
2282  134
2283  115
2284  134
2285  143
2286  133
2287  127
2288  147
2289  132
2290  119
2291  136
2292  116
2293  134
2294  123
2295  111
2296  110
2297  109
2298  134
2299  124
2300  128
2301  129
2302  148
2303  136
2304  138
2305  123
2306  113
2307  121
2308  95
2309  105
2310  138
2311  130
2312  150
2313  131
2314  122
2315  106
2316  140
2317  123
2318  147
2319  134
2320  135
2321  126
2322  132
2323  123
2324  134
2325  157
2326  142
2327  129
2328  120
2329  114
2330  134
2331  141
2332  120
2333  125
2334  117
2335  155
2336  127
2337  126
2338  131
2339  130
2340  138
2341  136
2342  123
2343  168
2344  146
2345  155
2346  128
2347  137
2348  122
2349  132
2350  139
2351  122
2352  154
2353  138
2354  136
2355  138
2356  143
2357  128
2358  154
2359  124
2360  133
2361  150
2362  139
2363  149
2364  139
2365  157
2366  122
2367  157
2368  131
2369  146
2370  126
2371  134
2372  140
2373  148
2374  142
2375  137
2376  148
2377  150
2378  122
2379  127
2380  141
2381  125
2382  133
2383  162
2384  127
2385  117
2386  121
2387  145
2388  134
2389  144
2390  134
2391  141
2392  155
2393  134
2394  137
2395  132
2396  133
2397  135
2398  147
2399  142
2400  138
2401  131
2402  146
2403  144
2404  134
2405  159
2406  120
2407  115
2408  145
2409  147
2410  151
2411  133
2412  138
2413  132
2414  152
2415  129
2416  151
2417  111
2418  144
2419  124
2420  120
2421  133
2422  126
2423  129
2424  156
2425  110
2426  125
2427  141
2428  128
2429  141
2430  137
2431  138
2432  145
2433  135
2434  122
2435  110
2436  144
2437  135
2438  133
2439  129
2440  136
2441  122
2442  129
2443  106
2444  116
2445  136
2446  151
2447  148
2448  139
2449  129
2450  121
2451  132
2452  141
2453  115
2454  141
2455  123
2456  128
2457  156
2458  119
2459  143
2460  112
2461  140
2462  143
2463  155
2464  124
2465  132
2466  144
2467  120
2468  136
2469  132
2470  115
2471  123
2472  130
2473  134
2474  128
2475  140
2476  151
2477  149
2478  135
2479  139
2480  139
2481  116
2482  131
2483  124
2484  126
2485  140
2486  128
2487  124
2488  158
2489  118
2490  114
2491  128
2492  121
2493  130
2494  154
2495  115
2496  133
2497  133
2498  129
2499  152
2500  102
2501  120
2502  156
2503  128
2504  125
2505  144
2506  128
2507  124
2508  120
2509  108
2510  139
2511  157
2512  109
2513  122
2514  135
2515  130
2516  144
2517  134
2518  142
2519  130
2520  151
2521  132
2522  157
2523  137
2524  132
2525  131
2526  135
2527  120
2528  134
2529  119
2530  129
2531  127
2532  128
2533  126
2534  119
2535  117
2536  153
2537  138
2538  149
2539  113
2540  124
2541  122
2542  124
2543  123
2544  121
2545  135
2546  114
2547  111
2548  120
2549  146
2550  141
2551  148
2552  130
2553  132
2554  147
2555  127
2556  116
2557  129
2558  135
2559  110
2560  129
2561  112
2562  114
2563  121
2564  105
2565  128
2566  107
2567  107
2568  123
2569  114
2570  121
2571  126
2572  123
2573  136
2574  101
2575  121
2576  140
2577  127
2578  106
2579  111
2580  117
2581  129
2582  106
2583  120
2584  121
2585  108
2586  126
2587  113
2588  126
2589  112
2590  126
2591  121
2592  116
2593  99
2594  123
2595  132
2596  125
2597  108
2598  126
2599  125
2600  126
2601  117
2602  113
2603  117
2604  113
2605  102
2606  110
2607  101
2608  103
2609  129
2610  118
2611  110
2612  129
2613  112
2614  129
2615  117
2616  118
2617  105
2618  136
2619  95
2620  119
2621  111
2622  103
2623  110
2624  99
2625  104
2626  138
2627  107
2628  113
2629  126
2630  111
2631  102
2632  129
2633  100
2634  105
2635  94
2636  122
2637  114
2638  118
2639  85
2640  99
2641  103
2642  90
2643  89
2644  100
2645  107
2646  112
2647  97
2648  123
2649  108
2650  113
2651  103
2652  92
2653  92
2654  112
2655  123
2656  91
2657  95
2658  103
2659  95
2660  102
2661  89
2662  86
2663  91
2664  102
2665  87
2666  97
2667  87
2668  91
2669  107
2670  108
2671  119
2672  96
2673  98
2674  85
2675  104
2676  98
2677  112
2678  109
2679  93
2680  90
2681  91
2682  81
2683  101
2684  80
2685  104
2686  81
2687  90
2688  95
2689  119
2690  86
2691  74
2692  102
2693  97
2694  82
2695  107
2696  101
2697  93
2698  92
2699  95
2700  108
2701  107
2702  99
2703  113
2704  98
2705  95
2706  93
2707  103
2708  87
2709  78
2710  87
2711  96
2712  68
2713  88
2714  87
2715  99
2716  91
2717  89
2718  88
2719  84
2720  101
2721  78
2722  84
2723  72
2724  85
2725  93
2726  92
2727  89
2728  70
2729  92
2730  79
2731  91
2732  90
2733  92
2734  88
2735  85
2736  93
2737  83
2738  90
2739  79
2740  74
2741  75
2742  82
2743  90
2744  69
2745  73
2746  93
2747  80
2748  90
2749  92
2750  68
2751  85
2752  84
2753  66
2754  90
2755  86
2756  82
2757  70
2758  85
2759  74
2760  70
2761  84
2762  88
2763  88
2764  84
2765  80
2766  81
2767  84
2768  91
2769  76
2770  85
2771  66
2772  98
2773  77
2774  82
2775  86
2776  67
2777  66
2778  77
2779  67
2780  71
2781  68
2782  60
2783  68
2784  78
2785  67
2786  74
2787  70
2788  57
2789  75
2790  83
2791  88
2792  74
2793  63
2794  65
2795  80
2796  60
2797  57
2798  71
2799  66
2800  68
2801  56
2802  73
2803  76
2804  57
2805  66
2806  82
2807  61
2808  65
2809  57
2810  71
2811  69
2812  58
2813  41
2814  59
2815  59
2816  62
2817  51
2818  66
2819  47
2820  50
2821  56
2822  62
2823  52
2824  45
2825  44
2826  47
2827  54
2828  57
2829  46
2830  43
2831  54
2832  60
2833  38
2834  51
2835  69
2836  52
2837  55
2838  43
2839  43
2840  52
2841  47
2842  47
2843  51
2844  59
2845  47
2846  45
2847  42
2848  46
2849  54
2850  49
2851  59
2852  39
2853  48
2854  42
2855  43
2856  41
2857  40
2858  55
2859  53
2860  45
2861  52
2862  48
2863  48
2864  33
2865  39
2866  34
2867  54
2868  53
2869  39
2870  42
2871  43
2872  44
2873  35
2874  40
2875  43
2876  45
2877  55
2878  44
2879  44
2880  37
2881  41
2882  41
2883  40
2884  43
2885  36
2886  40
2887  30
2888  40
2889  32
2890  35
2891  39
2892  26
2893  37
2894  41
2895  29
2896  33
2897  39
2898  41
2899  39
2900  39
2901  38
2902  41
2903  28
2904  40
2905  34
2906  34
2907  35
2908  24
2909  23
2910  42
2911  44
2912  34
2913  34
2914  38
2915  34
2916  33
2917  36
2918  29
2919  29
2920  34
2921  24
2922  39
2923  26
2924  37
2925  19
2926  27
2927  43
2928  22
2929  38
2930  40
2931  28
2932  38
2933  41
2934  31
2935  29
2936  45
2937  30
2938  28
2939  33
2940  27
2941  26
2942  36
2943  37
2944  28
2945  31
2946  26
2947  28
2948  27
2949  34
2950  23
2951  27
2952  34
2953  43
2954  46
2955  35
2956  32
2957  36
2958  35
2959  29
2960  30
2961  34
2962  28
2963  32
2964  34
2965  38
2966  30
2967  29
2968  33
2969  28
2970  29
2971  40
2972  27
2973  29
2974  27
2975  39
2976  33
2977  34
2978  43
2979  28
2980  23
2981  39
2982  28
2983  28
2984  28
2985  32
2986  26
2987  32
2988  31
2989  33
2990  33
2991  34
2992  20
2993  30
2994  35
2995  27
2996  24
2997  25
2998  23
2999  31
3000  27
3001  36
3002  32
3003  34
3004  29
3005  31
3006  30
3007  24
3008  41
3009  30
3010  30
3011  18
3012  36
3013  34
3014  30
3015  33
3016  29
3017  30
3018  31
3019  36
3020  32
3021  29
3022  31
3023  28
3024  22
3025  26
3026  38
3027  28
3028  29
3029  23
3030  43
3031  39
3032  28
3033  38
3034  27
3035  31
3036  31
3037  29
3038  30
3039  27
3040  33
3041  33
3042  32
3043  38
3044  26
3045  28
3046  18
3047  22
3048  29
3049  26
3050  30
3051  21
3052  27
3053  36
3054  15
3055  29
3056  33
3057  24
3058  22
3059  18
3060  20
3061  31
3062  22
3063  26
3064  28
3065  27
3066  27
3067  23
3068  30
3069  28
3070  27
3071  21
3072  28
3073  26
3074  21
3075  28
3076  33
3077  25
3078  28
3079  20
3080  20
3081  29
3082  25
3083  21
3084  26
3085  28
3086  27
3087  22
3088  28
3089  22
3090  21
3091  24
3092  22
3093  24
3094  26
3095  25
3096  25
3097  23
3098  27
3099  21
3100  28
3101  15
3102  26
3103  21
3104  29
3105  21
3106  25
3107  22
3108  26
3109  19
3110  27
3111  19
3112  21
3113  21
3114  27
3115  34
3116  22
3117  25
3118  16
3119  23
3120  23
3121  28
3122  28
3123  29
3124  31
3125  26
3126  21
3127  25
3128  18
3129  22
3130  32
3131  27
3132  31
3133  27
3134  22
3135  18
3136  25
3137  32
3138  33
3139  18
3140  16
3141  33
3142  25
3143  24
3144  25
3145  27
3146  22
3147  23
3148  35
3149  29
3150  20
3151  21
3152  21
3153  37
3154  36
3155  27
3156  18
3157  39
3158  30
3159  23
3160  25
3161  24
3162  30
3163  27
3164  25
3165  32
3166  30
3167  31
3168  30
3169  28
3170  31
3171  21
3172  28
3173  31
3174  22
3175  35
3176  45
3177  23
3178  20
3179  38
3180  31
3181  22
3182  31
3183  34
3184  34
3185  28
3186  25
3187  23
3188  31
3189  28
3190  24
3191  35
3192  33
3193  29
3194  39
3195  25
3196  23
3197  27
3198  19
3199  24
3200  34
3201  28
3202  29
3203  27
3204  20
3205  40
3206  26
3207  38
3208  24
3209  29
3210  19
3211  30
3212  37
3213  35
3214  36
3215  37
3216  25
3217  28
3218  26
3219  24
3220  36
3221  22
3222  37
3223  32
3224  30
3225  28
3226  32
3227  41
3228  32
3229  42
3230  29
3231  21
3232  40
3233  35
3234  34
3235  35
3236  26
3237  21
3238  30
3239  39
3240  40
3241  33
3242  30
3243  36
3244  31
3245  41
3246  38
3247  46
3248  35
3249  46
3250  35
3251  30
3252  44
3253  32
3254  30
3255  38
3256  26
3257  36
3258  28
3259  34
3260  30
3261  42
3262  35
3263  38
3264  27
3265  33
3266  41
3267  32
3268  26
3269  37
3270  34
3271  31
3272  41
3273  34
3274  37
3275  39
3276  34
3277  45
3278  38
3279  39
3280  35
3281  40
3282  45
3283  36
3284  39
3285  42
3286  40
3287  42
3288  35
3289  42
3290  32
3291  41
3292  29
3293  34
3294  47
3295  47
3296  31
3297  33
3298  49
3299  40
3300  33
3301  38
3302  35
3303  42
3304  41
3305  56
3306  51
3307  48
3308  43
3309  45
3310  39
3311  35
3312  40
3313  54
3314  40
3315  42
3316  33
3317  52
3318  48
3319  43
3320  36
3321  31
3322  36
3323  41
3324  36
3325  43
3326  51
3327  41
3328  42
3329  44
3330  46
3331  40
3332  47
3333  36
3334  38
3335  46
3336  38
3337  41
3338  42
3339  33
3340  50
3341  61
3342  34
3343  49
3344  43
3345  49
3346  45
3347  45
3348  54
3349  45
3350  46
3351  44
3352  41
3353  34
3354  47
3355  57
3356  51
3357  43
3358  36
3359  45
3360  51
3361  40
3362  45
3363  35
3364  46
3365  33
3366  58
3367  23
3368  48
3369  48
3370  54
3371  53
3372  45
3373  44
3374  46
3375  64
3376  48
3377  50
3378  42
3379  56
3380  48
3381  49
3382  43
3383  44
3384  48
3385  57
3386  58
3387  66
3388  54
3389  45
3390  48
3391  51
3392  47
3393  55
3394  49
3395  47
3396  55
3397  45
3398  53
3399  44
3400  48
3401  62
3402  71
3403  64
3404  46
3405  52
3406  61
3407  63
3408  47
3409  47
3410  32
3411  56
3412  64
3413  48
3414  66
3415  51
3416  40
3417  53
3418  57
3419  47
3420  48
3421  56
3422  61
3423  51
3424  46
3425  48
3426  64
3427  38
3428  54
3429  45
3430  52
3431  63
3432  56
3433  54
3434  53
3435  60
3436  43
3437  46
3438  60
3439  51
3440  69
3441  49
3442  65
3443  55
3444  52
3445  65
3446  59
3447  51
3448  54
3449  65
3450  65
3451  54
3452  61
3453  51
3454  53
3455  60
3456  61
3457  56
3458  52
3459  67
3460  57
3461  47
3462  56
3463  78
3464  69
3465  51
3466  46
3467  54
3468  58
3469  60
3470  56
3471  53
3472  64
3473  62
3474  72
3475  73
3476  75
3477  71
3478  50
3479  58
3480  57
3481  58
3482  71
3483  62
3484  62
3485  57
3486  64
3487  60
3488  60
3489  77
3490  65
3491  66
3492  73
3493  64
3494  69
3495  64
3496  71
3497  57
3498  70
3499  61
3500  65
3501  69
3502  59
3503  75
3504  61
3505  62
3506  72
3507  60
3508  64
3509  70
3510  67
3511  69
3512  81
3513  62
3514  68
3515  74
3516  72
3517  74
3518  71
3519  67
3520  69
3521  86
3522  82
3523  82
3524  98
3525  79
3526  89
3527  80
3528  82
3529  88
3530  82
3531  92
3532  89
3533  97
3534  82
3535  89
3536  98
3537  96
3538  106
3539  87
3540  101
3541  115
3542  127
3543  119
3544  135
3545  160
3546  155
3547  173
3548  216
3549  222
3550  295
3551  336
3552  327
3553  436
3554  451
3555  504
3556  610
3557  645
3558  699
3559  840
3560  908
3561  1032
3562  1123
3563  1234
3564  1384
3565  1461
3566  1556
3567  1633
3568  1710
3569  1743
3570  1786
3571  1819
3572  1842
3573  1827
3574  1872
3575  1836
3576  1826
3577  1822
3578  1715
3579  1624
3580  1558
3581  1536
3582  1408
3583  1262
3584  1211
3585  1128
3586  1095
3587  1016
3588  912
3589  800
3590  764
3591  677
3592  666
3593  609
3594  569
3595  549
3596  481
3597  413
3598  412
3599  379
3600  338
3601  297
3602  286
3603  303
3604  274
3605  235
3606  223
3607  238
3608  238
3609  202
3610  176
3611  204
3612  181
3613  183
3614  150
3615  168
3616  145
3617  122
3618  127
3619  153
3620  130
3621  96
3622  118
3623  113
3624  99
3625  101
3626  85
3627  97
3628  94
3629  112
3630  89
3631  87
3632  87
3633  85
3634  104
3635  108
3636  94
3637  86
3638  81
3639  94
3640  95
3641  86
3642  84
3643  96
3644  82
3645  70
3646  90
3647  80
3648  102
3649  93
3650  71
3651  92
3652  75
3653  80
3654  87
3655  90
3656  81
3657  81
3658  67
3659  72
3660  94
3661  82
3662  75
3663  76
3664  74
3665  98
3666  90
3667  90
3668  65
3669  78
3670  80
3671  97
3672  92
3673  89
3674  78
3675  92
3676  73
3677  85
3678  95
3679  88
3680  78
3681  81
3682  86
3683  84
3684  83
3685  86
3686  86
3687  81
3688  94
3689  85
3690  83
3691  92
3692  76
3693  82
3694  85
3695  92
3696  82
3697  88
3698  91
3699  89
3700  84
3701  80
3702  80
3703  90
3704  87
3705  77
3706  90
3707  91
3708  85
3709  88
3710  79
3711  84
3712  109
3713  82
3714  81
3715  96
3716  73
3717  98
3718  101
3719  82
3720  75
3721  104
3722  92
3723  87
3724  82
3725  95
3726  93
3727  90
3728  88
3729  87
3730  89
3731  107
3732  97
3733  96
3734  100
3735  88
3736  94
3737  87
3738  95
3739  88
3740  100
3741  105
3742  103
3743  111
3744  104
3745  94
3746  96
3747  74
3748  86
3749  86
3750  97
3751  120
3752  99
3753  116
3754  85
3755  91
3756  76
3757  95
3758  102
3759  86
3760  93
3761  86
3762  63
3763  117
3764  85
3765  93
3766  97
3767  93
3768  99
3769  90
3770  97
3771  88
3772  83
3773  92
3774  100
3775  109
3776  89
3777  100
3778  93
3779  106
3780  109
3781  105
3782  91
3783  97
3784  104
3785  95
3786  96
3787  91
3788  98
3789  113
3790  95
3791  85
3792  96
3793  82
3794  97
3795  97
3796  91
3797  111
3798  97
3799  104
3800  114
3801  107
3802  95
3803  100
3804  103
3805  99
3806  98
3807  102
3808  104
3809  88
3810  105
3811  109
3812  85
3813  107
3814  127
3815  110
3816  105
3817  100
3818  96
3819  104
3820  94
3821  102
3822  114
3823  92
3824  87
3825  112
3826  94
3827  113
3828  112
3829  94
3830  112
3831  108
3832  98
3833  106
3834  112
3835  103
3836  93
3837  103
3838  118
3839  110
3840  0
3841  0
3842  0
3843  0
3844  0
3845  0
3846  0
3847  0
3848  0
3849  0
3850  0
3851  0
3852  0
3853  0
3854  0
3855  0
3856  0
3857  0
3858  0
3859  0
3860  0
3861  0
3862  0
3863  0
3864  0
3865  0
3866  0
3867  0
3868  0
3869  0
3870  0
3871  0
3872  0
3873  0
3874  0
3875  0
3876  0
3877  0
3878  0
3879  0
3880  0
3881  0
3882  0
3883  0
3884  0
3885  0
3886  0
3887  0
3888  0
3889  0
3890  0
3891  0
3892  0
3893  0
3894  0
3895  0
3896  0
3897  0
3898  0
3899  0
3900  0
3901  0
3902  0
3903  0
3904  0
3905  0
3906  0
3907  0
3908  0
3909  0
3910  0
3911  0
3912  0
3913  0
3914  0
3915  0
3916  0
3917  0
3918  0
3919  0
3920  0
3921  0
3922  0
3923  0
3924  0
3925  0
3926  0
3927  0
3928  0
3929  0
3930  0
3931  0
3932  0
3933  0
3934  0
3935  0
3936  0
3937  0
3938  0
3939  0
3940  0
3941  0
3942  0
3943  0
3944  0
3945  0
3946  0
3947  0
3948  0
3949  0
3950  0
3951  0
3952  0
3953  0
3954  0
3955  0
3956  0
3957  0
3958  0
3959  0
3960  0
3961  0
3962  0
3963  0
3964  0
3965  0
3966  0
3967  0
3968  0
3969  0
3970  0
3971  0
3972  0
3973  0
3974  0
3975  0
3976  0
3977  0
3978  0
3979  0
3980  0
3981  0
3982  0
3983  0
3984  0
3985  0
3986  0
3987  0
3988  0
3989  0
3990  0
3991  0
3992  0
3993  0
3994  0
3995  0
3996  0
3997  0
3998  0
3999  0
4000  0
4001  0
4002  0
4003  0
4004  0
4005  0
4006  0
4007  0
4008  0
4009  0
4010  0
4011  0
4012  0
4013  0
4014  0
4015  0
4016  0
4017  0
4018  0
4019  0
4020  0
4021  0
4022  0
4023  0
4024  0
4025  0
4026  0
4027  0
4028  0
4029  0
4030  0
4031  0
4032  0
4033  0
4034  0
4035  0
4036  0
4037  0
4038  0
4039  0
4040  0
4041  0
4042  0
4043  0
4044  0
4045  0
4046  0
4047  0
4048  0
4049  0
4050  0
4051  0
4052  0
4053  0
4054  0
4055  0
4056  0
4057  0
4058  0
4059  0
4060  0
4061  0
4062  0
4063  0
4064  0
4065  0
4066  0
4067  0
4068  0
4069  0
4070  0
4071  0
4072  0
4073  0
4074  0
4075  0
4076  0
4077  0
4078  0
4079  0
4080  0
4081  0
4082  0
4083  0
4084  0
4085  0
4086  0
4087  0
4088  0
4089  0
4090  0
4091  0
4092  0
4093  0
4094  0
4095  0
