0  2
1  0
2  1
3  1
4  2
5  0
6  1
7  4
8  1
9  2
10  2
11  1
12  1
13  1
14  2
15  1
16  4
17  1
18  1
19  0
20  0
21  2
22  1
23  0
24  4
25  2
26  2
27  3
28  3
29  5
30  2
31  2
32  2
33  0
34  3
35  4
36  0
37  2
38  2
39  4
40  4
41  1
42  4
43  3
44  4
45  2
46  3
47  7
48  3
49  5
50  2
51  1
52  4
53  5
54  3
55  5
56  1
57  4
58  3
59  7
60  4
61  3
62  8
63  5
64  3
65  9
66  6
67  4
68  3
69  2
70  4
71  6
72  8
73  5
74  7
75  5
76  6
77  9
78  2
79  3
80  9
81  14
82  7
83  13
84  4
85  10
86  9
87  9
88  10
89  4
90  7
91  7
92  12
93  8
94  11
95  9
96  9
97  7
98  12
99  8
100  5
101  15
102  15
103  7
104  14
105  11
106  6
107  7
108  11
109  16
110  18
111  8
112  14
113  13
114  10
115  16
116  20
117  14
118  14
119  9
120  13
121  14
122  14
123  21
124  16
125  22
126  18
127  26
128  21
129  19
130  15
131  11
132  14
133  24
134  24
135  17
136  14
137  29
138  20
139  16
140  20
141  30
142  29
143  31
144  25
145  26
146  30
147  26
148  29
149  37
150  38
151  31
152  40
153  33
154  37
155  37
156  37
157  41
158  41
159  43
160  43
161  58
162  57
163  57
164  43
165  59
166  84
167  62
168  82
169  68
170  72
171  91
172  81
173  123
174  113
175  112
176  135
177  118
178  144
179  141
180  182
181  185
182  185
183  206
184  211
185  257
186  300
187  339
188  452
189  560
190  693
191  920
192  1178
193  1401
194  1733
195  1907
196  2140
197  2360
198  2591
199  2601
200  2633
201  2697
202  2784
203  2866
204  2849
205  2682
206  2686
207  2676
208  2720
209  2773
210  2659
211  2659
212  2639
213  2545
214  2568
215  2561
216  2604
217  2532
218  2416
219  2587
220  2556
221  2413
222  2482
223  2386
224  2419
225  2397
226  2361
227  2400
228  2380
229  2364
230  2285
231  2244
232  2366
233  2293
234  2295
235  2251
236  2291
237  2258
238  2236
239  2223
240  2189
241  2200
242  2250
243  2232
244  2185
245  2167
246  2133
247  2156
248  2141
249  2039
250  2046
251  2109
252  2033
253  2011
254  2028
255  1995
256  1937
257  1950
258  1982
259  1982
260  1977
261  1939
262  1859
263  1861
264  1790
265  1840
266  1862
267  1923
268  1825
269  1801
270  1783
271  1829
272  1784
273  1709
274  1751
275  1692
276  1684
277  1742
278  1669
279  1666
280  1661
281  1684
282  1738
283  1619
284  1585
285  1595
286  1608
287  1612
288  1657
289  1649
290  1606
291  1656
292  1654
293  1636
294  1618
295  1545
296  1569
297  1574
298  1600
299  1481
300  1521
301  1520
302  1499
303  1492
304  1493
305  1478
306  1505
307  1451
308  1499
309  1510
310  1459
311  1451
312  1534
313  1504
314  1482
315  1451
316  1422
317  1515
318  1413
319  1430
320  1393
321  1497
322  1482
323  1407
324  1409
325  1469
326  1462
327  1448
328  1498
329  1394
330  1479
331  1380
332  1472
333  1427
334  1419
335  1408
336  1416
337  1372
338  1378
339  1420
340  1385
341  1438
342  1417
343  1444
344  1363
345  1449
346  1373
347  1334
348  1431
349  1329
350  1328
351  1256
352  1360
353  1357
354  1326
355  1387
356  1382
357  1423
358  1326
359  1293
360  1323
361  1331
362  1310
363  1339
364  1344
365  1406
366  1347
367  1409
368  1314
369  1279
370  1335
371  1385
372  1350
373  1353
374  1407
375  1363
376  1302
377  1359
378  1410
379  1326
380  1394
381  1332
382  1316
383  1337
384  1379
385  1363
386  1279
387  1382
388  1363
389  1370
390  1297
391  1332
392  1334
393  1292
394  1245
395  1260
396  1328
397  1325
398  1316
399  1314
400  1283
401  1273
402  1312
403  1280
404  1304
405  1306
406  1280
407  1295
408  1224
409  1235
410  1221
411  1238
412  1253
413  1267
414  1256
415  1197
416  1268
417  1234
418  1280
419  1211
420  1202
421  1165
422  1245
423  1213
424  1261
425  1166
426  1163
427  1173
428  1241
429  1200
430  1195
431  1144
432  1178
433  1181
434  1163
435  1125
436  1148
437  1098
438  1116
439  1111
440  1170
441  1107
442  1051
443  1103
444  1139
445  1081
446  1112
447  1061
448  1145
449  1098
450  1079
451  1033
452  996
453  1078
454  1045
455  1112
456  1048
457  1067
458  1041
459  1031
460  1005
461  1007
462  1032
463  1074
464  1055
465  1044
466  994
467  1017
468  951
469  1003
470  990
471  1045
472  988
473  1003
474  992
475  976
476  1011
477  971
478  952
479  968
480  932
481  1002
482  966
483  983
484  940
485  1022
486  1017
487  936
488  971
489  897
490  979
491  936
492  943
493  943
494  939
495  971
496  987
497  931
498  926
499  915
500  996
501  952
502  995
503  947
504  939
505  926
506  921
507  981
508  927
509  900
510  948
511  944
512  918
513  925
514  949
515  909
516  969
517  947
518  878
519  896
520  897
521  901
522  860
523  896
524  890
525  908
526  987
527  890
528  878
529  868
530  940
531  916
532  890
533  899
534  947
535  917
536  910
537  864
538  879
539  899
540  903
541  938
542  906
543  829
544  838
545  872
546  920
547  896
548  881
549  916
550  955
551  880
552  889
553  918
554  894
555  906
556  870
557  858
558  898
559  882
560  839
561  879
562  884
563  881
564  896
565  914
566  918
567  855
568  866
569  904
570  873
571  898
572  901
573  873
574  854
575  868
576  840
577  865
578  865
579  825
580  872
581  890
582  875
583  878
584  862
585  860
586  877
587  899
588  913
589  889
590  870
591  873
592  875
593  816
594  871
595  860
596  844
597  845
598  842
599  801
600  847
601  881
602  882
603  811
604  872
605  897
606  871
607  843
608  837
609  887
610  859
611  844
612  883
613  882
614  843
615  876
616  857
617  870
618  910
619  895
620  861
621  855
622  892
623  796
624  847
625  908
626  879
627  862
628  815
629  896
630  865
631  911
632  893
633  885
634  886
635  892
636  903
637  917
638  863
639  877
640  913
641  874
642  935
643  900
644  868
645  872
646  913
647  862
648  907
649  898
650  945
651  836
652  924
653  867
654  868
655  912
656  911
657  866
658  1001
659  901
660  929
661  873
662  893
663  861
664  926
665  860
666  954
667  934
668  897
669  939
670  909
671  893
672  989
673  931
674  924
675  940
676  936
677  845
678  926
679  942
680  936
681  884
682  901
683  948
684  897
685  845
686  932
687  892
688  879
689  921
690  959
691  927
692  891
693  916
694  904
695  900
696  915
697  860
698  904
699  911
700  880
701  877
702  906
703  930
704  879
705  866
706  885
707  922
708  847
709  875
710  863
711  850
712  806
713  858
714  850
715  852
716  829
717  877
718  862
719  807
720  792
721  791
722  790
723  792
724  731
725  740
726  749
727  799
728  805
729  746
730  745
731  721
732  758
733  727
734  717
735  728
736  693
737  698
738  691
739  691
740  687
741  686
742  636
743  646
744  653
745  672
746  614
747  656
748  646
749  591
750  585
751  634
752  575
753  610
754  538
755  524
756  519
757  545
758  564
759  572
760  481
761  511
762  536
763  474
764  550
765  534
766  480
767  516
768  521
769  484
770  466
771  492
772  436
773  485
774  439
775  405
776  404
777  456
778  440
779  416
780  422
781  416
782  426
783  417
784  437
785  417
786  420
787  446
788  388
789  420
790  397
791  388
792  400
793  371
794  365
795  374
796  399
797  402
798  369
799  356
800  379
801  374
802  319
803  361
804  342
805  375
806  361
807  359
808  371
809  347
810  310
811  313
812  332
813  325
814  328
815  295
816  324
817  314
818  334
819  320
820  329
821  343
822  305
823  319
824  361
825  292
826  327
827  344
828  344
829  334
830  354
831  334
832  305
833  323
834  331
835  333
836  325
837  308
838  350
839  286
840  350
841  353
842  307
843  327
844  331
845  328
846  295
847  320
848  323
849  287
850  289
851  314
852  338
853  285
854  290
855  292
856  298
857  293
858  280
859  313
860  264
861  283
862  314
863  303
864  278
865  308
866  300
867  287
868  321
869  314
870  280
871  263
872  297
873  279
874  264
875  278
876  286
877  310
878  305
879  276
880  287
881  285
882  274
883  276
884  273
885  303
886  260
887  279
888  279
889  286
890  288
891  270
892  281
893  251
894  278
895  260
896  281
897  274
898  239
899  262
900  271
901  282
902  248
903  264
904  264
905  269
906  258
907  264
908  257
909  287
910  270
911  254
912  272
913  249
914  253
915  257
916  277
917  254
918  229
919  260
920  256
921  234
922  263
923  287
924  227
925  239
926  232
927  262
928  251
929  256
930  268
931  256
932  232
933  250
934  235
935  262
936  235
937  227
938  221
939  249
940  237
941  232
942  250
943  255
944  214
945  240
946  228
947  273
948  243
949  260
950  224
951  238
952  232
953  242
954  224
955  234
956  210
957  231
958  236
959  215
960  224
961  233
962  226
963  203
964  235
965  207
966  244
967  212
968  226
969  175
970  220
971  250
972  231
973  234
974  229
975  233
976  219
977  220
978  225
979  224
980  207
981  210
982  202
983  205
984  227
985  230
986  213
987  211
988  214
989  177
990  204
991  213
992  212
993  207
994  202
995  233
996  207
997  218
998  209
999  201
1000  183
1001  223
1002  216
1003  214
1004  180
1005  198
1006  213
1007  208
1008  211
1009  201
1010  212
1011  223
1012  225
1013  207
1014  202
1015  209
1016  188
1017  194
1018  201
1019  184
1020  196
1021  212
1022  218
1023  207
1024  210
1025  179
1026  205
1027  204
1028  207
1029  212
1030  214
1031  190
1032  204
1033  229
1034  214
1035  211
1036  224
1037  212
1038  215
1039  216
1040  215
1041  198
1042  200
1043  182
1044  213
1045  185
1046  215
1047  204
1048  196
1049  184
1050  207
1051  202
1052  201
1053  217
1054  203
1055  190
1056  219
1057  183
1058  207
1059  186
1060  209
1061  200
1062  202
1063  168
1064  198
1065  201
1066  184
1067  206
1068  194
1069  192
1070  208
1071  207
1072  187
1073  210
1074  189
1075  178
1076  200
1077  190
1078  180
1079  217
1080  178
1081  195
1082  184
1083  187
1084  201
1085  180
1086  169
1087  202
1088  191
1089  195
1090  168
1091  203
1092  196
1093  187
1094  209
1095  214
1096  168
1097  202
1098  192
1099  204
1100  215
1101  156
1102  198
1103  172
1104  191
1105  191
1106  162
1107  172
1108  169
1109  205
1110  181
1111  166
1112  173
1113  175
1114  176
1115  173
1116  196
1117  186
1118  174
1119  185
1120  197
1121  187
1122  164
1123  152
1124  182
1125  149
1126  190
1127  164
1128  169
1129  189
1130  193
1131  186
1132  190
1133  173
1134  159
1135  187
1136  160
1137  142
1138  167
1139  178
1140  167
1141  171
1142  175
1143  165
1144  142
1145  189
1146  181
1147  185
1148  173
1149  171
1150  183
1151  161
1152  176
1153  171
1154  170
1155  152
1156  162
1157  141
1158  138
1159  153
1160  175
1161  177
1162  168
1163  163
1164  172
1165  155
1166  149
1167  139
1168  150
1169  159
1170  155
1171  174
1172  171
1173  145
1174  156
1175  162
1176  157
1177  152
1178  157
1179  148
1180  143
1181  148
1182  160
1183  131
1184  162
1185  149
1186  146
1187  151
1188  163
1189  162
1190  170
1191  149
1192  162
1193  150
1194  125
1195  146
1196  134
1197  168
1198  173
1199  151
1200  165
1201  153
1202  135
1203  156
1204  156
1205  156
1206  157
1207  133
1208  174
1209  130
1210  154
1211  159
1212  117
1213  173
1214  156
1215  135
1216  144
1217  157
1218  145
1219  158
1220  149
1221  136
1222  135
1223  161
1224  152
1225  150
1226  144
1227  150
1228  128
1229  147
1230  128
1231  165
1232  144
1233  152
1234  152
1235  167
1236  161
1237  126
1238  159
1239  127
1240  147
1241  130
1242  150
1243  145
1244  132
1245  127
1246  124
1247  110
1248  145
1249  157
1250  137
1251  126
1252  154
1253  145
1254  142
1255  145
1256  129
1257  132
1258  138
1259  132
1260  124
1261  155
1262  130
1263  146
1264  148
1265  132
1266  122
1267  135
1268  126
1269  127
1270  131
1271  139
1272  141
1273  137
1274  133
1275  116
1276  129
1277  128
1278  120
1279  144
1280  137
1281  145
1282  133
1283  118
1284  146
1285  124
1286  125
1287  114
1288  123
1289  148
1290  116
1291  141
1292  147
1293  163
1294  139
1295  126
1296  142
1297  131
1298  130
1299  136
1300  130
1301  134
1302  133
1303  127
1304  111
1305  128
1306  112
1307  143
1308  141
1309  130
1310  138
1311  149
1312  131
1313  137
1314  136
1315  110
1316  119
1317  113
1318  124
1319  112
1320  120
1321  123
1322  131
1323  114
1324  150
1325  142
1326  136
1327  136
1328  120
1329  143
1330  131
1331  124
1332  120
1333  114
1334  150
1335  137
1336  138
1337  119
1338  120
1339  129
1340  121
1341  116
1342  122
1343  121
1344  127
1345  105
1346  112
1347  112
1348  124
1349  117
1350  131
1351  116
1352  144
1353  123
1354  163
1355  135
1356  130
1357  120
1358  121
1359  119
1360  117
1361  119
1362  117
1363  139
1364  100
1365  127
1366  120
1367  108
1368  123
1369  102
1370  131
1371  122
1372  131
1373  123
1374  104
1375  94
1376  110
1377  111
1378  123
1379  102
1380  119
1381  113
1382  137
1383  113
1384  82
1385  109
1386  116
1387  97
1388  116
1389  102
1390  96
1391  84
1392  112
1393  107
1394  99
1395  116
1396  112
1397  108
1398  95
1399  111
1400  96
1401  117
1402  99
1403  100
1404  105
1405  111
1406  128
1407  94
1408  115
1409  109
1410  98
1411  91
1412  119
1413  115
1414  117
1415  111
1416  98
1417  89
1418  105
1419  113
1420  109
1421  88
1422  119
1423  105
1424  106
1425  99
1426  123
1427  111
1428  117
1429  97
1430  104
1431  123
1432  116
1433  120
1434  98
1435  123
1436  94
1437  121
1438  116
1439  104
1440  93
1441  96
1442  99
1443  89
1444  92
1445  104
1446  103
1447  103
1448  128
1449  107
1450  120
1451  103
1452  122
1453  98
1454  99
1455  131
1456  104
1457  83
1458  84
1459  114
1460  94
1461  99
1462  86
1463  90
1464  82
1465  108
1466  98
1467  87
1468  87
1469  110
1470  101
1471  95
1472  105
1473  117
1474  105
1475  82
1476  97
1477  94
1478  87
1479  110
1480  86
1481  85
1482  125
1483  120
1484  118
1485  95
1486  97
1487  103
1488  107
1489  104
1490  99
1491  95
1492  119
1493  90
1494  102
1495  89
1496  94
1497  85
1498  106
1499  83
1500  87
1501  96
1502  96
1503  94
1504  103
1505  102
1506  121
1507  102
1508  95
1509  91
1510  89
1511  106
1512  94
1513  92
1514  90
1515  108
1516  102
1517  89
1518  109
1519  85
1520  106
1521  97
1522  98
1523  98
1524  83
1525  92
1526  95
1527  91
1528  98
1529  97
1530  88
1531  107
1532  102
1533  92
1534  80
1535  91
1536  107
1537  97
1538  107
1539  91
1540  95
1541  97
1542  94
1543  80
1544  99
1545  95
1546  74
1547  102
1548  86
1549  90
1550  83
1551  90
1552  103
1553  92
1554  93
1555  108
1556  91
1557  89
1558  87
1559  87
1560  89
1561  89
1562  106
1563  88
1564  103
1565  83
1566  104
1567  99
1568  117
1569  98
1570  100
1571  96
1572  97
1573  103
1574  94
1575  96
1576  105
1577  102
1578  89
1579  93
1580  93
1581  90
1582  83
1583  91
1584  92
1585  106
1586  78
1587  80
1588  85
1589  80
1590  80
1591  101
1592  81
1593  87
1594  92
1595  94
1596  100
1597  94
1598  85
1599  86
1600  82
1601  98
1602  76
1603  89
1604  87
1605  84
1606  98
1607  95
1608  93
1609  70
1610  80
1611  77
1612  94
1613  73
1614  80
1615  89
1616  85
1617  85
1618  108
1619  92
1620  74
1621  92
1622  93
1623  81
1624  88
1625  80
1626  59
1627  80
1628  95
1629  77
1630  92
1631  99
1632  76
1633  93
1634  72
1635  96
1636  93
1637  79
1638  76
1639  66
1640  74
1641  73
1642  92
1643  72
1644  73
1645  78
1646  81
1647  85
1648  76
1649  87
1650  82
1651  77
1652  89
1653  98
1654  97
1655  72
1656  78
1657  87
1658  85
1659  86
1660  111
1661  91
1662  90
1663  80
1664  76
1665  82
1666  73
1667  80
1668  86
1669  89
1670  86
1671  80
1672  82
1673  69
1674  85
1675  71
1676  70
1677  86
1678  66
1679  74
1680  83
1681  74
1682  73
1683  80
1684  89
1685  104
1686  89
1687  78
1688  92
1689  80
1690  79
1691  76
1692  68
1693  59
1694  102
1695  68
1696  85
1697  74
1698  75
1699  72
1700  51
1701  77
1702  79
1703  111
1704  72
1705  73
1706  73
1707  65
1708  78
1709  63
1710  80
1711  83
1712  57
1713  63
1714  74
1715  69
1716  66
1717  75
1718  71
1719  72
1720  75
1721  62
1722  71
1723  77
1724  75
1725  84
1726  88
1727  73
1728  57
1729  70
1730  64
1731  85
1732  82
1733  72
1734  72
1735  59
1736  61
1737  70
1738  56
1739  69
1740  70
1741  64
1742  66
1743  84
1744  70
1745  59
1746  64
1747  78
1748  81
1749  69
1750  69
1751  64
1752  76
1753  51
1754  70
1755  58
1756  76
1757  71
1758  79
1759  73
1760  71
1761  56
1762  58
1763  65
1764  77
1765  82
1766  75
1767  73
1768  67
1769  69
1770  71
1771  59
1772  65
1773  50
1774  61
1775  61
1776  75
1777  63
1778  63
1779  59
1780  68
1781  76
1782  75
1783  60
1784  53
1785  70
1786  62
1787  65
1788  63
1789  65
1790  67
1791  63
1792  65
1793  72
1794  68
1795  63
1796  79
1797  74
1798  62
1799  54
1800  76
1801  60
1802  53
1803  66
1804  44
1805  65
1806  64
1807  59
1808  57
1809  63
1810  76
1811  68
1812  55
1813  56
1814  66
1815  51
1816  50
1817  50
1818  67
1819  60
1820  60
1821  39
1822  59
1823  64
1824  60
1825  49
1826  56
1827  55
1828  38
1829  45
1830  71
1831  56
1832  60
1833  60
1834  58
1835  58
1836  49
1837  56
1838  56
1839  57
1840  48
1841  50
1842  52
1843  50
1844  50
1845  55
1846  62
1847  47
1848  43
1849  45
1850  59
1851  52
1852  57
1853  53
1854  55
1855  53
1856  53
1857  50
1858  55
1859  48
1860  61
1861  61
1862  59
1863  36
1864  49
1865  48
1866  64
1867  44
1868  48
1869  58
1870  51
1871  64
1872  60
1873  58
1874  53
1875  69
1876  45
1877  37
1878  52
1879  56
1880  46
1881  50
1882  50
1883  38
1884  47
1885  52
1886  47
1887  47
1888  57
1889  48
1890  45
1891  57
1892  41
1893  42
1894  66
1895  43
1896  47
1897  52
1898  51
1899  41
1900  43
1901  53
1902  43
1903  49
1904  46
1905  38
1906  48
1907  42
1908  45
1909  48
1910  48
1911  49
1912  52
1913  43
1914  51
1915  38
1916  39
1917  53
1918  42
1919  46
1920  45
1921  48
1922  41
1923  41
1924  51
1925  55
1926  48
1927  48
1928  52
1929  35
1930  41
1931  38
1932  43
1933  44
1934  35
1935  41
1936  41
1937  48
1938  34
1939  50
1940  41
1941  33
1942  36
1943  52
1944  34
1945  46
1946  37
1947  47
1948  42
1949  39
1950  37
1951  36
1952  37
1953  46
1954  32
1955  34
1956  40
1957  44
1958  55
1959  34
1960  37
1961  30
1962  49
1963  37
1964  31
1965  32
1966  41
1967  40
1968  35
1969  36
1970  32
1971  36
1972  33
1973  47
1974  43
1975  30
1976  45
1977  42
1978  42
1979  49
1980  36
1981  31
1982  35
1983  29
1984  35
1985  32
1986  35
1987  30
1988  29
1989  34
1990  24
1991  28
1992  37
1993  39
1994  33
1995  35
1996  36
1997  33
1998  22
1999  33
2000  25
2001  25
2002  32
2003  41
2004  39
2005  37
2006  42
2007  31
2008  35
2009  32
2010  26
2011  29
2012  22
2013  37
2014  28
2015  36
2016  28
2017  28
2018  37
2019  35
2020  30
2021  43
2022  32
2023  41
2024  33
2025  20
2026  25
2027  27
2028  39
2029  30
2030  27
2031  27
2032  32
2033  29
2034  32
2035  45
2036  39
2037  34
2038  29
2039  34
2040  25
2041  29
2042  41
2043  27
2044  45
2045  29
2046  32
2047  27
2048  36
2049  42
2050  38
2051  37
2052  29
2053  32
2054  30
2055  37
2056  33
2057  40
2058  24
2059  24
2060  29
2061  31
2062  23
2063  35
2064  23
2065  20
2066  22
2067  28
2068  32
2069  38
2070  31
2071  31
2072  39
2073  29
2074  22
2075  40
2076  22
2077  29
2078  31
2079  24
2080  29
2081  35
2082  38
2083  27
2084  30
2085  28
2086  27
2087  20
2088  35
2089  33
2090  32
2091  30
2092  26
2093  20
2094  29
2095  29
2096  26
2097  30
2098  25
2099  33
2100  27
2101  23
2102  27
2103  30
2104  33
2105  28
2106  38
2107  33
2108  27
2109  33
2110  28
2111  30
2112  25
2113  29
2114  30
2115  15
2116  35
2117  30
2118  25
2119  24
2120  24
2121  39
2122  29
2123  28
2124  32
2125  35
2126  33
2127  29
2128  34
2129  27
2130  36
2131  24
2132  26
2133  19
2134  25
2135  27
2136  29
2137  26
2138  18
2139  21
2140  26
2141  22
2142  24
2143  27
2144  30
2145  23
2146  24
2147  26
2148  25
2149  24
2150  17
2151  26
2152  32
2153  31
2154  23
2155  30
2156  25
2157  17
2158  18
2159  26
2160  18
2161  19
2162  28
2163  21
2164  29
2165  21
2166  26
2167  20
2168  21
2169  21
2170  31
2171  27
2172  25
2173  31
2174  18
2175  13
2176  24
2177  27
2178  25
2179  25
2180  15
2181  20
2182  21
2183  17
2184  21
2185  31
2186  17
2187  22
2188  17
2189  25
2190  15
2191  23
2192  21
2193  26
2194  22
2195  29
2196  24
2197  25
2198  28
2199  19
2200  22
2201  16
2202  14
2203  26
2204  19
2205  26
2206  23
2207  24
2208  29
2209  33
2210  24
2211  15
2212  26
2213  14
2214  29
2215  15
2216  23
2217  21
2218  17
2219  27
2220  22
2221  18
2222  20
2223  19
2224  26
2225  21
2226  22
2227  24
2228  23
2229  26
2230  22
2231  11
2232  18
2233  18
2234  24
2235  26
2236  20
2237  22
2238  20
2239  22
2240  23
2241  17
2242  15
2243  22
2244  21
2245  24
2246  21
2247  24
2248  21
2249  15
2250  14
2251  16
2252  19
2253  19
2254  20
2255  15
2256  19
2257  16
2258  22
2259  11
2260  25
2261  20
2262  23
2263  17
2264  17
2265  20
2266  17
2267  25
2268  14
2269  23
2270  20
2271  29
2272  18
2273  15
2274  20
2275  20
2276  23
2277  19
2278  21
2279  14
2280  15
2281  17
2282  16
2283  16
2284  12
2285  12
2286  13
2287  20
2288  21
2289  21
2290  15
2291  11
2292  17
2293  17
2294  13
2295  10
2296  13
2297  21
2298  16
2299  16
2300  17
2301  25
2302  20
2303  18
2304  16
2305  15
2306  10
2307  15
2308  20
2309  19
2310  13
2311  19
2312  9
2313  14
2314  19
2315  22
2316  13
2317  25
2318  18
2319  15
2320  16
2321  14
2322  11
2323  17
2324  13
2325  13
2326  16
2327  18
2328  13
2329  18
2330  12
2331  13
2332  12
2333  21
2334  26
2335  12
2336  18
2337  10
2338  13
2339  15
2340  14
2341  16
2342  17
2343  11
2344  17
2345  15
2346  20
2347  22
2348  15
2349  21
2350  15
2351  12
2352  16
2353  13
2354  20
2355  12
2356  13
2357  16
2358  16
2359  17
2360  10
2361  20
2362  16
2363  17
2364  24
2365  11
2366  7
2367  10
2368  12
2369  11
2370  20
2371  18
2372  11
2373  12
2374  7
2375  18
2376  16
2377  15
2378  13
2379  15
2380  17
2381  11
2382  15
2383  9
2384  12
2385  10
2386  11
2387  17
2388  14
2389  11
2390  11
2391  16
2392  16
2393  18
2394  13
2395  15
2396  15
2397  12
2398  12
2399  10
2400  13
2401  17
2402  13
2403  15
2404  12
2405  23
2406  13
2407  10
2408  18
2409  11
2410  16
2411  11
2412  11
2413  11
2414  14
2415  10
2416  11
2417  14
2418  11
2419  14
2420  9
2421  9
2422  6
2423  16
2424  11
2425  13
2426  15
2427  21
2428  8
2429  10
2430  7
2431  13
2432  8
2433  9
2434  13
2435  14
2436  11
2437  8
2438  13
2439  9
2440  11
2441  11
2442  12
2443  11
2444  13
2445  10
2446  11
2447  6
2448  3
2449  7
2450  14
2451  10
2452  14
2453  9
2454  11
2455  9
2456  12
2457  11
2458  7
2459  13
2460  14
2461  13
2462  6
2463  7
2464  13
2465  6
2466  15
2467  8
2468  8
2469  9
2470  12
2471  8
2472  16
2473  7
2474  10
2475  11
2476  9
2477  7
2478  8
2479  9
2480  12
2481  16
2482  9
2483  8
2484  3
2485  8
2486  10
2487  9
2488  7
2489  12
2490  9
2491  14
2492  8
2493  11
2494  9
2495  10
2496  11
2497  8
2498  13
2499  7
2500  4
2501  8
2502  10
2503  8
2504  8
2505  11
2506  10
2507  11
2508  13
2509  5
2510  11
2511  8
2512  11
2513  7
2514  11
2515  10
2516  8
2517  9
2518  16
2519  5
2520  11
2521  6
2522  11
2523  7
2524  14
2525  6
2526  6
2527  7
2528  9
2529  8
2530  10
2531  10
2532  8
2533  9
2534  8
2535  8
2536  8
2537  6
2538  8
2539  7
2540  4
2541  8
2542  8
2543  6
2544  4
2545  2
2546  7
2547  11
2548  4
2549  10
2550  7
2551  8
2552  7
2553  10
2554  8
2555  8
2556  3
2557  12
2558  8
2559  5
2560  16
2561  15
2562  9
2563  11
2564  5
2565  4
2566  7
2567  7
2568  7
2569  7
2570  6
2571  9
2572  6
2573  6
2574  4
2575  5
2576  4
2577  8
2578  11
2579  6
2580  5
2581  9
2582  6
2583  3
2584  3
2585  2
2586  4
2587  5
2588  7
2589  6
2590  7
2591  6
2592  8
2593  5
2594  4
2595  9
2596  6
2597  8
2598  3
2599  6
2600  3
2601  9
2602  5
2603  6
2604  4
2605  4
2606  6
2607  7
2608  11
2609  6
2610  10
2611  4
2612  4
2613  11
2614  4
2615  7
2616  6
2617  1
2618  6
2619  5
2620  7
2621  6
2622  5
2623  4
2624  7
2625  8
2626  3
2627  4
2628  7
2629  4
2630  4
2631  9
2632  6
2633  7
2634  6
2635  6
2636  3
2637  8
2638  7
2639  5
2640  5
2641  6
2642  10
2643  6
2644  9
2645  5
2646  1
2647  5
2648  5
2649  4
2650  4
2651  4
2652  2
2653  4
2654  5
2655  5
2656  8
2657  5
2658  1
2659  5
2660  5
2661  3
2662  7
2663  8
2664  6
2665  4
2666  3
2667  5
2668  5
2669  7
2670  5
2671  7
2672  1
2673  0
2674  6
2675  7
2676  5
2677  6
2678  2
2679  4
2680  2
2681  3
2682  5
2683  5
2684  6
2685  5
2686  3
2687  9
2688  8
2689  5
2690  1
2691  6
2692  9
2693  3
2694  4
2695  4
2696  6
2697  4
2698  5
2699  4
2700  4
2701  2
2702  5
2703  6
2704  5
2705  3
2706  2
2707  3
2708  1
2709  8
2710  5
2711  3
2712  1
2713  9
2714  5
2715  5
2716  3
2717  3
2718  4
2719  6
2720  3
2721  2
2722  8
2723  5
2724  5
2725  3
2726  3
2727  2
2728  5
2729  3
2730  1
2731  6
2732  4
2733  3
2734  3
2735  1
2736  3
2737  3
2738  3
2739  2
2740  4
2741  5
2742  3
2743  4
2744  1
2745  2
2746  3
2747  3
2748  7
2749  4
2750  4
2751  2
2752  4
2753  3
2754  4
2755  1
2756  4
2757  5
2758  1
2759  1
2760  7
2761  4
2762  6
2763  3
2764  4
2765  6
2766  4
2767  5
2768  1
2769  2
2770  0
2771  3
2772  4
2773  1
2774  3
2775  3
2776  3
2777  3
2778  1
2779  4
2780  3
2781  6
2782  6
2783  3
2784  2
2785  4
2786  2
2787  4
2788  2
2789  4
2790  1
2791  4
2792  0
2793  5
2794  5
2795  2
2796  5
2797  3
2798  2
2799  2
2800  4
2801  5
2802  2
2803  1
2804  2
2805  3
2806  3
2807  2
2808  4
2809  2
2810  3
2811  3
2812  4
2813  6
2814  5
2815  2
2816  1
2817  2
2818  4
2819  1
2820  8
2821  3
2822  3
2823  1
2824  5
2825  4
2826  2
2827  4
2828  2
2829  4
2830  2
2831  4
2832  6
2833  5
2834  4
2835  1
2836  2
2837  3
2838  3
2839  3
2840  0
2841  4
2842  1
2843  5
2844  7
2845  0
2846  6
2847  1
2848  2
2849  4
2850  2
2851  1
2852  2
2853  8
2854  6
2855  1
2856  1
2857  0
2858  2
2859  3
2860  3
2861  1
2862  1
2863  4
2864  4
2865  3
2866  2
2867  1
2868  0
2869  3
2870  0
2871  1
2872  7
2873  2
2874  5
2875  0
2876  3
2877  1
2878  1
2879  3
2880  5
2881  0
2882  2
2883  2
2884  4
2885  1
2886  1
2887  3
2888  3
2889  3
2890  3
2891  2
2892  3
2893  1
2894  0
2895  2
2896  3
2897  1
2898  2
2899  1
2900  5
2901  1
2902  3
2903  2
2904  1
2905  4
2906  1
2907  1
2908  2
2909  3
2910  0
2911  1
2912  3
2913  3
2914  2
2915  1
2916  4
2917  3
2918  3
2919  4
2920  1
2921  6
2922  2
2923  5
2924  2
2925  4
2926  1
2927  4
2928  2
2929  0
2930  3
2931  1
2932  2
2933  0
2934  2
2935  2
2936  1
2937  3
2938  3
2939  2
2940  3
2941  2
2942  3
2943  4
2944  2
2945  2
2946  1
2947  2
2948  3
2949  4
2950  1
2951  4
2952  2
2953  2
2954  3
2955  1
2956  0
2957  2
2958  1
2959  3
2960  0
2961  3
2962  1
2963  1
2964  3
2965  3
2966  1
2967  1
2968  2
2969  0
2970  4
2971  0
2972  2
2973  1
2974  3
2975  1
2976  3
2977  0
2978  0
2979  2
2980  0
2981  1
2982  1
2983  3
2984  2
2985  0
2986  3
2987  1
2988  1
2989  2
2990  3
2991  0
2992  1
2993  4
2994  3
2995  4
2996  1
2997  0
2998  1
2999  2
3000  1
3001  0
3002  1
3003  2
3004  1
3005  0
3006  3
3007  3
3008  0
3009  3
3010  1
3011  1
3012  0
3013  3
3014  1
3015  0
3016  1
3017  1
3018  2
3019  3
3020  1
3021  0
3022  2
3023  0
3024  0
3025  1
3026  1
3027  6
3028  2
3029  1
3030  4
3031  1
3032  1
3033  2
3034  1
3035  2
3036  0
3037  0
3038  3
3039  3
3040  2
3041  0
3042  0
3043  2
3044  0
3045  1
3046  2
3047  0
3048  1
3049  0
3050  1
3051  1
3052  2
3053  2
3054  4
3055  1
3056  0
3057  4
3058  0
3059  2
3060  3
3061  2
3062  1
3063  2
3064  1
3065  0
3066  4
3067  1
3068  1
3069  0
3070  0
3071  3
3072  0
3073  1
3074  1
3075  3
3076  0
3077  1
3078  1
3079  1
3080  0
3081  2
3082  0
3083  1
3084  2
3085  1
3086  1
3087  0
3088  1
3089  2
3090  0
3091  0
3092  1
3093  0
3094  0
3095  1
3096  1
3097  0
3098  1
3099  4
3100  1
3101  1
3102  1
3103  1
3104  1
3105  0
3106  2
3107  0
3108  1
3109  2
3110  0
3111  1
3112  1
3113  0
3114  1
3115  1
3116  1
3117  2
3118  1
3119  0
3120  0
3121  3
3122  3
3123  1
3124  1
3125  1
3126  1
3127  1
3128  1
3129  0
3130  0
3131  0
3132  2
3133  1
3134  1
3135  0
3136  0
3137  0
3138  0
3139  0
3140  1
3141  0
3142  0
3143  3
3144  1
3145  1
3146  1
3147  0
3148  0
3149  0
3150  0
3151  1
3152  0
3153  0
3154  0
3155  0
3156  0
3157  0
3158  0
3159  0
3160  0
3161  2
3162  1
3163  1
3164  0
3165  0
3166  0
3167  1
3168  2
3169  0
3170  0
3171  0
3172  1
3173  1
3174  0
3175  1
3176  2
3177  0
3178  0
3179  0
3180  0
3181  1
3182  0
3183  0
3184  2
3185  0
3186  0
3187  0
3188  0
3189  0
3190  0
3191  0
3192  1
3193  0
3194  0
3195  1
3196  0
3197  2
3198  1
3199  0
3200  0
3201  2
3202  0
3203  0
3204  0
3205  0
3206  0
3207  0
3208  0
3209  0
3210  1
3211  2
3212  0
3213  2
3214  0
3215  1
3216  0
3217  0
3218  0
3219  0
3220  0
3221  2
3222  1
3223  0
3224  1
3225  0
3226  1
3227  0
3228  1
3229  0
3230  2
3231  2
3232  0
3233  0
3234  0
3235  0
3236  0
3237  0
3238  0
3239  0
3240  1
3241  1
3242  0
3243  0
3244  1
3245  0
3246  0
3247  1
3248  1
3249  0
3250  0
3251  1
3252  1
3253  2
3254  1
3255  2
3256  2
3257  0
3258  2
3259  1
3260  0
3261  1
3262  0
3263  0
3264  1
3265  0
3266  1
3267  0
3268  0
3269  0
3270  0
3271  0
3272  0
3273  0
3274  0
3275  0
3276  1
3277  1
3278  0
3279  0
3280  0
3281  0
3282  0
3283  0
3284  0
3285  0
3286  1
3287  2
3288  0
3289  0
3290  0
3291  0
3292  2
3293  1
3294  0
3295  0
3296  0
3297  1
3298  0
3299  0
3300  0
3301  0
3302  1
3303  1
3304  1
3305  0
3306  0
3307  0
3308  1
3309  1
3310  1
3311  0
3312  1
3313  0
3314  0
3315  2
3316  1
3317  1
3318  0
3319  1
3320  0
3321  0
3322  0
3323  0
3324  0
3325  1
3326  1
3327  0
3328  0
3329  0
3330  0
3331  0
3332  0
3333  0
3334  0
3335  0
3336  1
3337  0
3338  0
3339  0
3340  0
3341  0
3342  1
3343  0
3344  0
3345  0
3346  0
3347  0
3348  0
3349  0
3350  1
3351  0
3352  0
3353  0
3354  0
3355  0
3356  0
3357  0
3358  0
3359  0
3360  0
3361  0
3362  0
3363  2
3364  1
3365  0
3366  0
3367  0
3368  0
3369  1
3370  0
3371  0
3372  0
3373  0
3374  1
3375  0
3376  0
3377  0
3378  0
3379  0
3380  0
3381  0
3382  0
3383  0
3384  1
3385  0
3386  1
3387  0
3388  0
3389  0
3390  0
3391  0
3392  0
3393  0
3394  0
3395  1
3396  0
3397  0
3398  1
3399  0
3400  0
3401  0
3402  0
3403  0
3404  1
3405  0
3406  0
3407  0
3408  0
3409  0
3410  1
3411  0
3412  0
3413  0
3414  0
3415  0
3416  0
3417  0
3418  0
3419  1
3420  0
3421  0
3422  0
3423  0
3424  0
3425  1
3426  0
3427  0
3428  0
3429  1
3430  0
3431  0
3432  0
3433  0
3434  0
3435  0
3436  0
3437  0
3438  0
3439  0
3440  0
3441  1
3442  0
3443  1
3444  0
3445  1
3446  0
3447  0
3448  0
3449  0
3450  0
3451  0
3452  1
3453  0
3454  0
3455  0
3456  0
3457  0
3458  1
3459  0
3460  0
3461  0
3462  0
3463  0
3464  1
3465  0
3466  0
3467  1
3468  0
3469  0
3470  0
3471  0
3472  0
3473  1
3474  1
3475  0
3476  0
3477  0
3478  0
3479  0
3480  0
3481  0
3482  1
3483  0
3484  1
3485  1
3486  1
3487  1
3488  1
3489  0
3490  3
3491  1
3492  0
3493  0
3494  1
3495  2
3496  1
3497  1
3498  0
3499  1
3500  0
3501  1
3502  0
3503  0
3504  2
3505  2
3506  0
3507  1
3508  0
3509  0
3510  0
3511  1
3512  1
3513  1
3514  0
3515  0
3516  0
3517  0
3518  0
3519  0
3520  0
3521  0
3522  0
3523  0
3524  0
3525  0
3526  0
3527  0
3528  0
3529  0
3530  0
3531  0
3532  0
3533  0
3534  0
3535  0
3536  0
3537  0
3538  0
3539  0
3540  0
3541  0
3542  0
3543  0
3544  0
3545  0
3546  0
3547  0
3548  0
3549  0
3550  0
3551  0
3552  0
3553  0
3554  0
3555  0
3556  0
3557  0
3558  0
3559  0
3560  0
3561  0
3562  1
3563  0
3564  0
3565  0
3566  0
3567  0
3568  0
3569  0
3570  0
3571  0
3572  0
3573  0
3574  0
3575  0
3576  0
3577  0
3578  0
3579  0
3580  0
3581  1
3582  0
3583  1
3584  0
3585  0
3586  0
3587  0
3588  1
3589  0
3590  3
3591  0
3592  0
3593  0
3594  0
3595  0
3596  1
3597  2
3598  3
3599  0
3600  0
3601  1
3602  0
3603  0
3604  0
3605  0
3606  0
3607  0
3608  0
3609  0
3610  0
3611  0
3612  0
3613  0
3614  0
3615  0
3616  0
3617  0
3618  0
3619  0
3620  0
3621  0
3622  0
3623  0
3624  0
3625  0
3626  0
3627  0
3628  0
3629  0
3630  0
3631  0
3632  0
3633  0
3634  0
3635  0
3636  0
3637  0
3638  0
3639  0
3640  0
3641  0
3642  0
3643  0
3644  0
3645  0
3646  0
3647  0
3648  0
3649  0
3650  0
3651  0
3652  0
3653  0
3654  0
3655  0
3656  0
3657  0
3658  0
3659  0
3660  0
3661  0
3662  0
3663  0
3664  0
3665  0
3666  0
3667  0
3668  0
3669  0
3670  0
3671  0
3672  0
3673  0
3674  0
3675  0
3676  0
3677  0
3678  0
3679  0
3680  0
3681  0
3682  0
3683  0
3684  0
3685  0
3686  0
3687  0
3688  0
3689  0
3690  0
3691  0
3692  0
3693  0
3694  0
3695  0
3696  0
3697  0
3698  0
3699  0
3700  0
3701  0
3702  0
3703  0
3704  0
3705  0
3706  0
3707  0
3708  0
3709  0
3710  0
3711  0
3712  0
3713  0
3714  0
3715  0
3716  0
3717  0
3718  0
3719  0
3720  0
3721  0
3722  0
3723  0
3724  0
3725  0
3726  0
3727  0
3728  0
3729  0
3730  0
3731  0
3732  0
3733  0
3734  0
3735  0
3736  0
3737  0
3738  0
3739  0
3740  0
3741  0
3742  0
3743  0
3744  0
3745  0
3746  0
3747  0
3748  0
3749  0
3750  0
3751  0
3752  0
3753  0
3754  0
3755  0
3756  0
3757  0
3758  0
3759  0
3760  0
3761  0
3762  0
3763  0
3764  0
3765  0
3766  0
3767  0
3768  0
3769  0
3770  0
3771  0
3772  0
3773  0
3774  0
3775  0
3776  0
3777  0
3778  0
3779  0
3780  0
3781  0
3782  0
3783  0
3784  0
3785  0
3786  0
3787  0
3788  0
3789  0
3790  0
3791  0
3792  0
3793  0
3794  0
3795  0
3796  0
3797  0
3798  0
3799  0
3800  0
3801  0
3802  0
3803  0
3804  0
3805  0
3806  0
3807  0
3808  0
3809  0
3810  0
3811  0
3812  0
3813  0
3814  0
3815  0
3816  0
3817  0
3818  0
3819  0
3820  0
3821  0
3822  0
3823  0
3824  0
3825  0
3826  0
3827  0
3828  0
3829  0
3830  0
3831  0
3832  0
3833  0
3834  0
3835  0
3836  0
3837  0
3838  0
3839  0
3840  0
3841  0
3842  0
3843  0
3844  0
3845  0
3846  0
3847  0
3848  0
3849  0
3850  0
3851  0
3852  0
3853  0
3854  0
3855  0
3856  0
3857  0
3858  0
3859  0
3860  0
3861  0
3862  0
3863  0
3864  0
3865  0
3866  0
3867  0
3868  0
3869  0
3870  0
3871  0
3872  0
3873  0
3874  0
3875  0
3876  0
3877  0
3878  0
3879  0
3880  0
3881  0
3882  0
3883  0
3884  0
3885  0
3886  0
3887  0
3888  0
3889  0
3890  0
3891  0
3892  0
3893  0
3894  0
3895  0
3896  0
3897  0
3898  0
3899  0
3900  0
3901  0
3902  0
3903  0
3904  0
3905  0
3906  0
3907  0
3908  0
3909  0
3910  0
3911  0
3912  0
3913  0
3914  0
3915  0
3916  0
3917  0
3918  0
3919  0
3920  0
3921  0
3922  0
3923  0
3924  0
3925  0
3926  0
3927  0
3928  0
3929  0
3930  0
3931  0
3932  0
3933  0
3934  0
3935  0
3936  0
3937  0
3938  0
3939  0
3940  0
3941  0
3942  0
3943  0
3944  0
3945  0
3946  0
3947  0
3948  0
3949  0
3950  0
3951  0
3952  0
3953  0
3954  0
3955  0
3956  0
3957  0
3958  0
3959  0
3960  0
3961  0
3962  0
3963  0
3964  0
3965  0
3966  0
3967  0
3968  0
3969  0
3970  0
3971  0
3972  0
3973  0
3974  0
3975  0
3976  0
3977  0
3978  0
3979  0
3980  0
3981  0
3982  0
3983  0
3984  0
3985  0
3986  0
3987  0
3988  0
3989  0
3990  0
3991  0
3992  0
3993  0
3994  0
3995  0
3996  0
3997  0
3998  0
3999  0
4000  0
4001  0
4002  0
4003  0
4004  0
4005  0
4006  0
4007  0
4008  0
4009  0
4010  0
4011  0
4012  0
4013  0
4014  0
4015  0
4016  0
4017  0
4018  0
4019  0
4020  0
4021  0
4022  0
4023  0
4024  0
4025  0
4026  0
4027  0
4028  0
4029  0
4030  0
4031  0
4032  0
4033  0
4034  0
4035  0
4036  0
4037  0
4038  0
4039  0
4040  0
4041  0
4042  0
4043  0
4044  0
4045  0
4046  0
4047  0
4048  0
4049  0
4050  0
4051  0
4052  0
4053  0
4054  0
4055  0
4056  0
4057  0
4058  0
4059  0
4060  0
4061  0
4062  0
4063  0
4064  0
4065  0
4066  0
4067  0
4068  0
4069  0
4070  0
4071  0
4072  0
4073  0
4074  0
4075  0
4076  0
4077  0
4078  0
4079  0
4080  0
4081  0
4082  0
4083  0
4084  0
4085  0
4086  0
4087  0
4088  0
4089  0
4090  0
4091  0
4092  0
4093  0
4094  0
4095  0
