0  4
1  0
2  1
3  3
4  1
5  6
6  1
7  3
8  2
9  2
10  4
11  3
12  3
13  1
14  0
15  3
16  0
17  4
18  2
19  1
20  4
21  3
22  3
23  5
24  3
25  2
26  3
27  4
28  3
29  2
30  5
31  4
32  3
33  6
34  9
35  11
36  3
37  5
38  2
39  5
40  5
41  6
42  5
43  6
44  9
45  6
46  11
47  8
48  11
49  13
50  10
51  7
52  11
53  12
54  6
55  9
56  8
57  12
58  9
59  14
60  10
61  10
62  10
63  4
64  7
65  9
66  10
67  6
68  18
69  14
70  12
71  11
72  17
73  7
74  15
75  7
76  17
77  11
78  10
79  11
80  12
81  8
82  14
83  13
84  14
85  14
86  13
87  13
88  25
89  16
90  20
91  19
92  20
93  13
94  21
95  16
96  15
97  16
98  28
99  26
100  16
101  26
102  24
103  18
104  24
105  26
106  20
107  20
108  23
109  27
110  18
111  27
112  23
113  25
114  25
115  28
116  27
117  44
118  39
119  25
120  19
121  31
122  27
123  32
124  27
125  31
126  33
127  46
128  49
129  41
130  47
131  42
132  42
133  38
134  55
135  41
136  51
137  52
138  63
139  56
140  49
141  66
142  69
143  67
144  76
145  63
146  82
147  88
148  109
149  90
150  114
151  97
152  126
153  126
154  148
155  158
156  143
157  165
158  181
159  217
160  250
161  326
162  359
163  465
164  658
165  840
166  1082
167  1461
168  1805
169  2202
170  2504
171  2768
172  3049
173  3398
174  3548
175  3547
176  3707
177  3701
178  3682
179  3587
180  3564
181  3779
182  3596
183  3586
184  3590
185  3581
186  3464
187  3451
188  3273
189  3241
190  3330
191  3342
192  3262
193  3232
194  3202
195  3210
196  3050
197  3124
198  3049
199  3071
200  2974
201  2931
202  2917
203  2940
204  2884
205  2822
206  2808
207  2828
208  2766
209  2720
210  2700
211  2666
212  2664
213  2602
214  2621
215  2462
216  2536
217  2515
218  2530
219  2516
220  2548
221  2484
222  2484
223  2508
224  2430
225  2433
226  2392
227  2265
228  2269
229  2259
230  2303
231  2312
232  2180
233  2222
234  2198
235  2122
236  2201
237  2196
238  2150
239  2033
240  2056
241  2091
242  2120
243  2113
244  2033
245  2080
246  2013
247  2025
248  1977
249  2043
250  1913
251  1917
252  1945
253  1898
254  1799
255  1940
256  1874
257  1802
258  1735
259  1846
260  1778
261  1806
262  1769
263  1699
264  1731
265  1702
266  1713
267  1691
268  1666
269  1679
270  1608
271  1666
272  1593
273  1571
274  1692
275  1596
276  1684
277  1566
278  1522
279  1584
280  1524
281  1639
282  1534
283  1458
284  1532
285  1505
286  1582
287  1514
288  1524
289  1461
290  1457
291  1463
292  1462
293  1506
294  1420
295  1436
296  1461
297  1439
298  1432
299  1334
300  1378
301  1372
302  1353
303  1512
304  1319
305  1400
306  1328
307  1388
308  1359
309  1390
310  1407
311  1327
312  1336
313  1311
314  1333
315  1335
316  1362
317  1327
318  1340
319  1393
320  1313
321  1262
322  1318
323  1271
324  1248
325  1246
326  1305
327  1244
328  1304
329  1257
330  1301
331  1272
332  1356
333  1276
334  1251
335  1223
336  1230
337  1252
338  1278
339  1178
340  1266
341  1254
342  1259
343  1206
344  1246
345  1192
346  1209
347  1261
348  1195
349  1199
350  1174
351  1272
352  1138
353  1252
354  1194
355  1223
356  1243
357  1130
358  1132
359  1222
360  1208
361  1201
362  1203
363  1151
364  1204
365  1196
366  1172
367  1142
368  1202
369  1167
370  1177
371  1171
372  1113
373  1170
374  1108
375  1112
376  1164
377  1136
378  1102
379  1118
380  1144
381  1147
382  1061
383  1147
384  1161
385  1130
386  1052
387  1109
388  1124
389  1078
390  1075
391  1080
392  1073
393  1148
394  1097
395  1033
396  1098
397  1084
398  1034
399  1076
400  1054
401  1041
402  1069
403  1047
404  1117
405  1006
406  1039
407  1069
408  1023
409  950
410  995
411  1021
412  1003
413  1011
414  976
415  1017
416  1021
417  963
418  923
419  932
420  974
421  941
422  940
423  984
424  943
425  962
426  934
427  912
428  939
429  1005
430  933
431  942
432  941
433  950
434  930
435  916
436  943
437  883
438  949
439  942
440  889
441  827
442  934
443  893
444  921
445  863
446  894
447  890
448  874
449  868
450  878
451  850
452  912
453  892
454  903
455  898
456  960
457  828
458  928
459  905
460  869
461  839
462  851
463  850
464  893
465  817
466  865
467  846
468  826
469  825
470  836
471  851
472  835
473  837
474  860
475  844
476  895
477  824
478  828
479  876
480  826
481  922
482  810
483  818
484  772
485  849
486  815
487  831
488  888
489  757
490  827
491  842
492  873
493  817
494  819
495  831
496  877
497  791
498  876
499  781
500  869
501  770
502  874
503  841
504  794
505  802
506  799
507  847
508  827
509  857
510  843
511  913
512  848
513  835
514  801
515  818
516  803
517  847
518  765
519  813
520  776
521  780
522  769
523  814
524  835
525  795
526  842
527  793
528  814
529  800
530  762
531  775
532  815
533  786
534  807
535  814
536  893
537  805
538  800
539  773
540  793
541  853
542  840
543  814
544  819
545  868
546  873
547  785
548  816
549  800
550  818
551  799
552  794
553  851
554  808
555  795
556  799
557  855
558  814
559  804
560  821
561  825
562  863
563  849
564  806
565  832
566  844
567  780
568  803
569  849
570  850
571  859
572  861
573  833
574  820
575  787
576  855
577  819
578  875
579  840
580  844
581  838
582  818
583  890
584  826
585  806
586  860
587  857
588  908
589  813
590  892
591  816
592  885
593  879
594  889
595  890
596  883
597  912
598  923
599  860
600  865
601  929
602  913
603  895
604  878
605  927
606  906
607  838
608  887
609  934
610  884
611  913
612  909
613  842
614  905
615  895
616  946
617  925
618  882
619  917
620  900
621  903
622  865
623  916
624  968
625  917
626  958
627  878
628  974
629  957
630  920
631  864
632  909
633  901
634  903
635  914
636  908
637  900
638  934
639  910
640  867
641  886
642  839
643  883
644  890
645  868
646  838
647  801
648  869
649  800
650  861
651  873
652  852
653  817
654  868
655  803
656  852
657  849
658  870
659  839
660  816
661  760
662  879
663  758
664  788
665  781
666  774
667  736
668  704
669  730
670  780
671  733
672  751
673  746
674  706
675  700
676  777
677  706
678  690
679  651
680  646
681  681
682  623
683  598
684  639
685  637
686  632
687  571
688  573
689  633
690  581
691  571
692  582
693  643
694  591
695  580
696  548
697  562
698  555
699  590
700  534
701  527
702  507
703  498
704  466
705  555
706  490
707  462
708  473
709  462
710  464
711  480
712  445
713  452
714  503
715  462
716  445
717  459
718  456
719  428
720  415
721  398
722  382
723  423
724  418
725  444
726  398
727  386
728  370
729  381
730  395
731  380
732  393
733  412
734  370
735  375
736  373
737  364
738  384
739  333
740  348
741  344
742  341
743  382
744  366
745  346
746  342
747  364
748  319
749  326
750  341
751  339
752  310
753  318
754  351
755  344
756  308
757  336
758  316
759  368
760  342
761  294
762  288
763  325
764  307
765  312
766  305
767  314
768  311
769  317
770  287
771  295
772  286
773  328
774  309
775  325
776  307
777  306
778  281
779  297
780  363
781  281
782  307
783  308
784  296
785  303
786  278
787  318
788  284
789  305
790  269
791  280
792  279
793  325
794  266
795  311
796  273
797  291
798  291
799  303
800  301
801  304
802  278
803  265
804  269
805  294
806  278
807  282
808  296
809  282
810  266
811  274
812  288
813  266
814  281
815  256
816  299
817  274
818  274
819  271
820  267
821  263
822  272
823  257
824  292
825  272
826  279
827  270
828  247
829  262
830  256
831  258
832  277
833  268
834  260
835  254
836  277
837  262
838  278
839  261
840  239
841  271
842  255
843  253
844  241
845  294
846  246
847  236
848  235
849  254
850  228
851  269
852  241
853  267
854  278
855  242
856  224
857  241
858  227
859  234
860  232
861  241
862  247
863  259
864  248
865  266
866  259
867  241
868  226
869  244
870  241
871  233
872  250
873  279
874  251
875  224
876  238
877  241
878  239
879  244
880  235
881  234
882  243
883  217
884  226
885  236
886  224
887  232
888  221
889  216
890  202
891  219
892  236
893  215
894  202
895  230
896  223
897  236
898  231
899  218
900  216
901  235
902  235
903  188
904  229
905  228
906  261
907  241
908  225
909  228
910  212
911  229
912  221
913  240
914  212
915  218
916  244
917  202
918  222
919  196
920  225
921  205
922  232
923  214
924  183
925  195
926  211
927  209
928  196
929  212
930  202
931  221
932  225
933  225
934  220
935  210
936  203
937  205
938  208
939  220
940  223
941  209
942  168
943  212
944  219
945  200
946  183
947  218
948  184
949  212
950  182
951  221
952  201
953  211
954  193
955  189
956  199
957  209
958  200
959  217
960  215
961  171
962  236
963  192
964  217
965  216
966  192
967  181
968  222
969  198
970  196
971  197
972  219
973  209
974  215
975  223
976  224
977  203
978  212
979  208
980  207
981  202
982  209
983  231
984  208
985  193
986  224
987  207
988  195
989  222
990  196
991  221
992  177
993  215
994  220
995  185
996  199
997  189
998  174
999  211
1000  196
1001  173
1002  183
1003  211
1004  194
1005  221
1006  191
1007  185
1008  184
1009  196
1010  211
1011  182
1012  206
1013  191
1014  189
1015  205
1016  188
1017  186
1018  196
1019  212
1020  203
1021  232
1022  195
1023  170
1024  202
1025  203
1026  183
1027  199
1028  192
1029  198
1030  204
1031  210
1032  192
1033  197
1034  200
1035  202
1036  193
1037  192
1038  208
1039  192
1040  174
1041  169
1042  160
1043  189
1044  220
1045  181
1046  181
1047  190
1048  182
1049  179
1050  171
1051  183
1052  187
1053  199
1054  181
1055  181
1056  200
1057  183
1058  179
1059  215
1060  187
1061  172
1062  170
1063  208
1064  180
1065  195
1066  178
1067  165
1068  186
1069  172
1070  182
1071  162
1072  193
1073  157
1074  164
1075  184
1076  145
1077  167
1078  185
1079  178
1080  184
1081  171
1082  173
1083  175
1084  151
1085  168
1086  173
1087  179
1088  153
1089  170
1090  183
1091  156
1092  183
1093  152
1094  194
1095  173
1096  183
1097  170
1098  159
1099  167
1100  155
1101  181
1102  160
1103  172
1104  168
1105  160
1106  172
1107  154
1108  162
1109  173
1110  165
1111  148
1112  183
1113  180
1114  178
1115  156
1116  155
1117  154
1118  181
1119  191
1120  167
1121  141
1122  173
1123  167
1124  180
1125  158
1126  161
1127  170
1128  166
1129  165
1130  157
1131  168
1132  158
1133  159
1134  154
1135  179
1136  171
1137  165
1138  150
1139  156
1140  161
1141  156
1142  151
1143  161
1144  156
1145  177
1146  158
1147  194
1148  172
1149  185
1150  163
1151  173
1152  157
1153  159
1154  161
1155  143
1156  193
1157  168
1158  164
1159  154
1160  149
1161  148
1162  151
1163  142
1164  175
1165  152
1166  141
1167  147
1168  147
1169  162
1170  146
1171  149
1172  176
1173  161
1174  150
1175  154
1176  173
1177  155
1178  161
1179  142
1180  150
1181  156
1182  166
1183  160
1184  170
1185  144
1186  147
1187  145
1188  136
1189  156
1190  139
1191  158
1192  135
1193  186
1194  164
1195  162
1196  184
1197  139
1198  145
1199  163
1200  155
1201  158
1202  152
1203  134
1204  130
1205  147
1206  152
1207  125
1208  153
1209  152
1210  134
1211  175
1212  149
1213  152
1214  157
1215  139
1216  146
1217  157
1218  146
1219  171
1220  134
1221  153
1222  143
1223  128
1224  130
1225  145
1226  133
1227  139
1228  154
1229  146
1230  148
1231  147
1232  148
1233  160
1234  124
1235  154
1236  160
1237  127
1238  145
1239  149
1240  140
1241  172
1242  143
1243  165
1244  136
1245  144
1246  148
1247  158
1248  165
1249  152
1250  155
1251  141
1252  154
1253  144
1254  145
1255  144
1256  154
1257  162
1258  149
1259  134
1260  135
1261  146
1262  127
1263  144
1264  137
1265  142
1266  153
1267  126
1268  149
1269  167
1270  134
1271  154
1272  130
1273  151
1274  134
1275  162
1276  135
1277  141
1278  134
1279  149
1280  134
1281  132
1282  135
1283  123
1284  155
1285  126
1286  164
1287  141
1288  133
1289  154
1290  124
1291  130
1292  133
1293  135
1294  118
1295  132
1296  145
1297  144
1298  143
1299  129
1300  141
1301  134
1302  109
1303  123
1304  106
1305  131
1306  143
1307  138
1308  132
1309  119
1310  109
1311  128
1312  123
1313  134
1314  129
1315  133
1316  135
1317  131
1318  127
1319  113
1320  128
1321  126
1322  114
1323  136
1324  127
1325  128
1326  112
1327  146
1328  145
1329  129
1330  117
1331  124
1332  124
1333  129
1334  117
1335  137
1336  115
1337  127
1338  125
1339  127
1340  132
1341  127
1342  129
1343  122
1344  122
1345  120
1346  122
1347  94
1348  138
1349  126
1350  123
1351  130
1352  114
1353  113
1354  110
1355  124
1356  122
1357  141
1358  107
1359  102
1360  111
1361  117
1362  113
1363  121
1364  122
1365  119
1366  125
1367  131
1368  101
1369  118
1370  120
1371  104
1372  105
1373  110
1374  116
1375  115
1376  103
1377  116
1378  122
1379  127
1380  141
1381  109
1382  134
1383  106
1384  132
1385  101
1386  107
1387  133
1388  118
1389  110
1390  123
1391  118
1392  101
1393  105
1394  111
1395  126
1396  119
1397  121
1398  105
1399  137
1400  112
1401  111
1402  114
1403  113
1404  117
1405  105
1406  101
1407  102
1408  107
1409  114
1410  109
1411  104
1412  113
1413  119
1414  105
1415  126
1416  105
1417  103
1418  129
1419  96
1420  107
1421  98
1422  110
1423  106
1424  123
1425  99
1426  99
1427  117
1428  115
1429  119
1430  110
1431  99
1432  109
1433  100
1434  108
1435  104
1436  121
1437  94
1438  100
1439  113
1440  100
1441  107
1442  101
1443  113
1444  100
1445  123
1446  120
1447  116
1448  109
1449  116
1450  136
1451  105
1452  101
1453  110
1454  98
1455  102
1456  97
1457  106
1458  96
1459  113
1460  128
1461  118
1462  98
1463  90
1464  107
1465  98
1466  98
1467  100
1468  104
1469  115
1470  99
1471  105
1472  96
1473  112
1474  105
1475  116
1476  93
1477  107
1478  100
1479  92
1480  97
1481  108
1482  117
1483  98
1484  108
1485  102
1486  86
1487  84
1488  88
1489  105
1490  88
1491  96
1492  99
1493  100
1494  95
1495  109
1496  124
1497  98
1498  104
1499  94
1500  104
1501  97
1502  93
1503  100
1504  89
1505  93
1506  102
1507  98
1508  106
1509  97
1510  76
1511  87
1512  100
1513  98
1514  122
1515  113
1516  110
1517  110
1518  97
1519  95
1520  85
1521  103
1522  92
1523  97
1524  95
1525  96
1526  95
1527  91
1528  84
1529  104
1530  88
1531  108
1532  79
1533  83
1534  92
1535  90
1536  103
1537  111
1538  99
1539  101
1540  97
1541  96
1542  107
1543  91
1544  90
1545  102
1546  83
1547  79
1548  97
1549  107
1550  104
1551  90
1552  104
1553  101
1554  87
1555  83
1556  99
1557  87
1558  105
1559  93
1560  99
1561  112
1562  86
1563  82
1564  92
1565  100
1566  84
1567  77
1568  119
1569  91
1570  107
1571  92
1572  98
1573  97
1574  92
1575  96
1576  91
1577  76
1578  103
1579  85
1580  101
1581  92
1582  111
1583  107
1584  98
1585  83
1586  79
1587  76
1588  92
1589  76
1590  68
1591  85
1592  81
1593  91
1594  92
1595  86
1596  94
1597  93
1598  87
1599  82
1600  80
1601  93
1602  100
1603  93
1604  84
1605  92
1606  95
1607  81
1608  70
1609  84
1610  102
1611  83
1612  99
1613  85
1614  85
1615  86
1616  92
1617  85
1618  86
1619  62
1620  102
1621  77
1622  84
1623  86
1624  78
1625  77
1626  90
1627  89
1628  98
1629  86
1630  85
1631  76
1632  72
1633  85
1634  82
1635  87
1636  75
1637  78
1638  81
1639  89
1640  80
1641  81
1642  61
1643  78
1644  66
1645  71
1646  80
1647  77
1648  83
1649  89
1650  95
1651  73
1652  73
1653  80
1654  77
1655  95
1656  86
1657  74
1658  75
1659  78
1660  88
1661  77
1662  70
1663  106
1664  76
1665  72
1666  67
1667  87
1668  62
1669  80
1670  92
1671  84
1672  80
1673  67
1674  64
1675  89
1676  64
1677  73
1678  69
1679  61
1680  63
1681  78
1682  69
1683  61
1684  75
1685  69
1686  76
1687  92
1688  67
1689  84
1690  70
1691  74
1692  60
1693  84
1694  67
1695  83
1696  73
1697  67
1698  75
1699  59
1700  78
1701  60
1702  88
1703  70
1704  78
1705  70
1706  65
1707  74
1708  54
1709  60
1710  62
1711  55
1712  77
1713  73
1714  79
1715  78
1716  74
1717  65
1718  71
1719  70
1720  67
1721  57
1722  61
1723  68
1724  67
1725  49
1726  64
1727  62
1728  79
1729  69
1730  66
1731  64
1732  82
1733  73
1734  72
1735  68
1736  55
1737  60
1738  66
1739  63
1740  69
1741  66
1742  55
1743  60
1744  66
1745  56
1746  58
1747  65
1748  52
1749  68
1750  57
1751  48
1752  54
1753  58
1754  56
1755  57
1756  61
1757  60
1758  63
1759  58
1760  66
1761  55
1762  45
1763  55
1764  52
1765  54
1766  64
1767  55
1768  47
1769  59
1770  61
1771  63
1772  66
1773  59
1774  48
1775  59
1776  45
1777  43
1778  56
1779  48
1780  54
1781  54
1782  55
1783  54
1784  47
1785  62
1786  59
1787  57
1788  33
1789  56
1790  63
1791  57
1792  60
1793  50
1794  47
1795  59
1796  61
1797  51
1798  51
1799  49
1800  62
1801  45
1802  60
1803  55
1804  62
1805  59
1806  54
1807  58
1808  39
1809  59
1810  34
1811  48
1812  54
1813  57
1814  52
1815  54
1816  60
1817  48
1818  51
1819  43
1820  48
1821  44
1822  39
1823  53
1824  53
1825  45
1826  53
1827  47
1828  51
1829  52
1830  40
1831  43
1832  42
1833  41
1834  46
1835  36
1836  41
1837  42
1838  44
1839  42
1840  36
1841  41
1842  51
1843  43
1844  42
1845  45
1846  36
1847  52
1848  37
1849  60
1850  61
1851  60
1852  50
1853  38
1854  45
1855  55
1856  42
1857  43
1858  44
1859  46
1860  49
1861  42
1862  35
1863  46
1864  38
1865  46
1866  41
1867  31
1868  48
1869  52
1870  42
1871  41
1872  36
1873  35
1874  39
1875  54
1876  36
1877  35
1878  55
1879  45
1880  36
1881  48
1882  43
1883  45
1884  33
1885  44
1886  53
1887  36
1888  30
1889  39
1890  34
1891  31
1892  30
1893  49
1894  41
1895  45
1896  33
1897  45
1898  37
1899  33
1900  41
1901  33
1902  38
1903  33
1904  33
1905  33
1906  41
1907  29
1908  35
1909  36
1910  31
1911  35
1912  45
1913  51
1914  34
1915  33
1916  28
1917  50
1918  44
1919  33
1920  28
1921  38
1922  38
1923  50
1924  43
1925  40
1926  34
1927  35
1928  20
1929  30
1930  36
1931  32
1932  32
1933  35
1934  36
1935  31
1936  29
1937  43
1938  34
1939  34
1940  40
1941  43
1942  36
1943  18
1944  23
1945  38
1946  34
1947  31
1948  37
1949  33
1950  34
1951  35
1952  37
1953  33
1954  32
1955  36
1956  41
1957  43
1958  36
1959  37
1960  35
1961  40
1962  44
1963  34
1964  36
1965  33
1966  25
1967  36
1968  40
1969  33
1970  30
1971  23
1972  32
1973  32
1974  33
1975  33
1976  42
1977  33
1978  31
1979  35
1980  33
1981  28
1982  36
1983  25
1984  28
1985  32
1986  35
1987  25
1988  35
1989  34
1990  26
1991  25
1992  29
1993  33
1994  26
1995  25
1996  34
1997  31
1998  32
1999  40
2000  33
2001  39
2002  31
2003  37
2004  47
2005  24
2006  26
2007  39
2008  28
2009  24
2010  23
2011  30
2012  28
2013  31
2014  39
2015  37
2016  29
2017  18
2018  26
2019  29
2020  28
2021  30
2022  42
2023  25
2024  22
2025  35
2026  26
2027  25
2028  23
2029  33
2030  32
2031  35
2032  29
2033  21
2034  28
2035  28
2036  29
2037  27
2038  25
2039  21
2040  26
2041  18
2042  24
2043  27
2044  33
2045  31
2046  34
2047  30
2048  27
2049  22
2050  20
2051  24
2052  28
2053  37
2054  27
2055  19
2056  32
2057  23
2058  28
2059  25
2060  24
2061  31
2062  27
2063  25
2064  28
2065  26
2066  27
2067  25
2068  28
2069  36
2070  40
2071  29
2072  23
2073  31
2074  26
2075  23
2076  22
2077  26
2078  15
2079  27
2080  24
2081  21
2082  32
2083  26
2084  24
2085  26
2086  26
2087  23
2088  21
2089  23
2090  29
2091  36
2092  32
2093  25
2094  28
2095  15
2096  23
2097  23
2098  21
2099  24
2100  22
2101  24
2102  23
2103  23
2104  23
2105  22
2106  19
2107  23
2108  27
2109  21
2110  24
2111  25
2112  14
2113  27
2114  26
2115  21
2116  16
2117  26
2118  22
2119  23
2120  17
2121  23
2122  16
2123  19
2124  17
2125  28
2126  24
2127  18
2128  22
2129  17
2130  23
2131  25
2132  25
2133  20
2134  31
2135  19
2136  21
2137  13
2138  16
2139  26
2140  20
2141  14
2142  18
2143  30
2144  24
2145  37
2146  24
2147  19
2148  19
2149  20
2150  10
2151  15
2152  25
2153  21
2154  18
2155  18
2156  17
2157  30
2158  21
2159  12
2160  30
2161  22
2162  14
2163  23
2164  28
2165  22
2166  22
2167  17
2168  16
2169  24
2170  19
2171  29
2172  22
2173  26
2174  17
2175  27
2176  17
2177  20
2178  19
2179  20
2180  17
2181  20
2182  21
2183  18
2184  15
2185  22
2186  18
2187  18
2188  30
2189  13
2190  16
2191  20
2192  14
2193  17
2194  24
2195  11
2196  21
2197  20
2198  18
2199  12
2200  26
2201  24
2202  13
2203  19
2204  18
2205  15
2206  16
2207  14
2208  19
2209  9
2210  18
2211  12
2212  15
2213  20
2214  20
2215  15
2216  14
2217  25
2218  16
2219  15
2220  16
2221  12
2222  14
2223  18
2224  14
2225  15
2226  16
2227  9
2228  15
2229  27
2230  17
2231  16
2232  13
2233  17
2234  17
2235  15
2236  20
2237  17
2238  15
2239  18
2240  17
2241  21
2242  12
2243  20
2244  19
2245  15
2246  16
2247  19
2248  13
2249  21
2250  13
2251  10
2252  14
2253  25
2254  17
2255  22
2256  10
2257  16
2258  12
2259  12
2260  10
2261  17
2262  19
2263  14
2264  15
2265  14
2266  16
2267  11
2268  14
2269  12
2270  13
2271  15
2272  10
2273  27
2274  16
2275  7
2276  22
2277  10
2278  16
2279  10
2280  18
2281  15
2282  8
2283  15
2284  14
2285  15
2286  15
2287  10
2288  11
2289  14
2290  12
2291  10
2292  13
2293  17
2294  5
2295  15
2296  11
2297  21
2298  12
2299  7
2300  13
2301  16
2302  12
2303  14
2304  9
2305  18
2306  13
2307  13
2308  16
2309  18
2310  19
2311  10
2312  16
2313  12
2314  19
2315  15
2316  17
2317  11
2318  16
2319  10
2320  14
2321  11
2322  9
2323  16
2324  9
2325  13
2326  14
2327  11
2328  9
2329  17
2330  13
2331  13
2332  11
2333  16
2334  13
2335  12
2336  19
2337  9
2338  14
2339  11
2340  10
2341  13
2342  8
2343  11
2344  14
2345  9
2346  15
2347  7
2348  17
2349  11
2350  19
2351  10
2352  11
2353  15
2354  13
2355  9
2356  15
2357  14
2358  6
2359  16
2360  14
2361  9
2362  9
2363  12
2364  10
2365  11
2366  10
2367  11
2368  12
2369  7
2370  11
2371  7
2372  10
2373  17
2374  8
2375  13
2376  12
2377  7
2378  11
2379  11
2380  13
2381  8
2382  6
2383  8
2384  11
2385  8
2386  6
2387  10
2388  12
2389  6
2390  5
2391  12
2392  6
2393  10
2394  5
2395  12
2396  14
2397  7
2398  13
2399  10
2400  15
2401  11
2402  10
2403  13
2404  10
2405  9
2406  13
2407  8
2408  11
2409  10
2410  12
2411  7
2412  14
2413  7
2414  6
2415  7
2416  9
2417  11
2418  12
2419  7
2420  15
2421  7
2422  12
2423  9
2424  6
2425  9
2426  9
2427  8
2428  5
2429  8
2430  3
2431  8
2432  4
2433  5
2434  7
2435  10
2436  3
2437  11
2438  8
2439  16
2440  9
2441  7
2442  2
2443  11
2444  10
2445  10
2446  8
2447  7
2448  6
2449  11
2450  7
2451  10
2452  7
2453  9
2454  6
2455  9
2456  14
2457  7
2458  10
2459  8
2460  7
2461  3
2462  3
2463  11
2464  7
2465  14
2466  14
2467  4
2468  12
2469  8
2470  6
2471  9
2472  5
2473  9
2474  5
2475  4
2476  5
2477  4
2478  9
2479  7
2480  10
2481  10
2482  5
2483  6
2484  5
2485  4
2486  9
2487  7
2488  5
2489  5
2490  4
2491  10
2492  6
2493  7
2494  10
2495  8
2496  9
2497  7
2498  5
2499  10
2500  6
2501  7
2502  5
2503  3
2504  9
2505  8
2506  7
2507  4
2508  7
2509  8
2510  7
2511  7
2512  2
2513  9
2514  8
2515  8
2516  8
2517  6
2518  4
2519  4
2520  5
2521  4
2522  10
2523  5
2524  4
2525  6
2526  9
2527  8
2528  6
2529  10
2530  6
2531  13
2532  11
2533  5
2534  4
2535  5
2536  9
2537  7
2538  6
2539  5
2540  1
2541  1
2542  9
2543  4
2544  2
2545  6
2546  1
2547  8
2548  2
2549  6
2550  6
2551  7
2552  7
2553  1
2554  5
2555  4
2556  4
2557  4
2558  4
2559  5
2560  7
2561  8
2562  0
2563  4
2564  6
2565  7
2566  7
2567  1
2568  5
2569  5
2570  5
2571  3
2572  8
2573  8
2574  4
2575  7
2576  2
2577  6
2578  4
2579  4
2580  1
2581  6
2582  3
2583  3
2584  4
2585  5
2586  3
2587  12
2588  3
2589  7
2590  6
2591  6
2592  6
2593  4
2594  2
2595  5
2596  5
2597  3
2598  4
2599  6
2600  7
2601  4
2602  4
2603  3
2604  4
2605  2
2606  4
2607  6
2608  3
2609  4
2610  5
2611  3
2612  6
2613  7
2614  2
2615  4
2616  1
2617  5
2618  2
2619  2
2620  7
2621  2
2622  3
2623  2
2624  3
2625  5
2626  3
2627  2
2628  3
2629  2
2630  5
2631  1
2632  6
2633  2
2634  2
2635  5
2636  4
2637  7
2638  1
2639  4
2640  3
2641  4
2642  3
2643  4
2644  5
2645  5
2646  5
2647  3
2648  2
2649  9
2650  2
2651  4
2652  6
2653  5
2654  5
2655  1
2656  2
2657  2
2658  1
2659  2
2660  4
2661  1
2662  6
2663  5
2664  2
2665  3
2666  3
2667  0
2668  4
2669  1
2670  2
2671  4
2672  3
2673  1
2674  5
2675  5
2676  2
2677  2
2678  2
2679  5
2680  1
2681  7
2682  4
2683  0
2684  4
2685  3
2686  9
2687  5
2688  3
2689  3
2690  2
2691  4
2692  4
2693  1
2694  5
2695  1
2696  2
2697  3
2698  6
2699  4
2700  3
2701  2
2702  1
2703  1
2704  3
2705  5
2706  6
2707  3
2708  4
2709  2
2710  5
2711  1
2712  4
2713  2
2714  0
2715  3
2716  2
2717  2
2718  1
2719  2
2720  5
2721  3
2722  2
2723  4
2724  3
2725  0
2726  4
2727  3
2728  2
2729  0
2730  3
2731  1
2732  1
2733  4
2734  6
2735  2
2736  3
2737  5
2738  8
2739  4
2740  2
2741  3
2742  0
2743  4
2744  1
2745  1
2746  2
2747  4
2748  4
2749  0
2750  2
2751  5
2752  1
2753  3
2754  1
2755  2
2756  2
2757  3
2758  4
2759  2
2760  6
2761  2
2762  5
2763  3
2764  3
2765  1
2766  2
2767  4
2768  0
2769  3
2770  1
2771  4
2772  2
2773  8
2774  4
2775  5
2776  2
2777  2
2778  1
2779  3
2780  1
2781  2
2782  0
2783  3
2784  3
2785  5
2786  2
2787  2
2788  0
2789  0
2790  1
2791  3
2792  3
2793  2
2794  2
2795  0
2796  6
2797  2
2798  1
2799  3
2800  2
2801  2
2802  3
2803  2
2804  2
2805  2
2806  2
2807  3
2808  4
2809  2
2810  1
2811  2
2812  1
2813  3
2814  3
2815  4
2816  4
2817  1
2818  4
2819  1
2820  5
2821  1
2822  4
2823  1
2824  4
2825  2
2826  4
2827  0
2828  3
2829  2
2830  4
2831  2
2832  2
2833  2
2834  3
2835  0
2836  5
2837  1
2838  1
2839  2
2840  2
2841  2
2842  3
2843  4
2844  0
2845  3
2846  4
2847  1
2848  4
2849  1
2850  0
2851  1
2852  5
2853  4
2854  3
2855  4
2856  3
2857  1
2858  1
2859  3
2860  1
2861  2
2862  1
2863  2
2864  1
2865  3
2866  1
2867  2
2868  3
2869  1
2870  2
2871  1
2872  1
2873  2
2874  1
2875  4
2876  3
2877  2
2878  1
2879  0
2880  0
2881  0
2882  2
2883  3
2884  1
2885  0
2886  1
2887  2
2888  3
2889  2
2890  1
2891  1
2892  1
2893  5
2894  2
2895  3
2896  1
2897  1
2898  1
2899  1
2900  2
2901  2
2902  2
2903  3
2904  0
2905  1
2906  3
2907  3
2908  6
2909  1
2910  3
2911  1
2912  2
2913  2
2914  0
2915  1
2916  3
2917  2
2918  5
2919  1
2920  6
2921  2
2922  2
2923  1
2924  0
2925  0
2926  0
2927  1
2928  3
2929  3
2930  0
2931  2
2932  0
2933  1
2934  0
2935  2
2936  2
2937  2
2938  0
2939  0
2940  4
2941  5
2942  5
2943  0
2944  2
2945  1
2946  0
2947  3
2948  1
2949  5
2950  4
2951  0
2952  0
2953  0
2954  2
2955  1
2956  1
2957  1
2958  2
2959  1
2960  1
2961  4
2962  2
2963  1
2964  2
2965  1
2966  4
2967  1
2968  2
2969  1
2970  1
2971  2
2972  3
2973  2
2974  2
2975  2
2976  2
2977  2
2978  0
2979  3
2980  2
2981  1
2982  2
2983  1
2984  1
2985  1
2986  1
2987  3
2988  2
2989  1
2990  0
2991  0
2992  0
2993  0
2994  1
2995  1
2996  0
2997  2
2998  3
2999  1
3000  0
3001  1
3002  2
3003  0
3004  1
3005  2
3006  0
3007  0
3008  1
3009  2
3010  1
3011  0
3012  3
3013  2
3014  1
3015  1
3016  1
3017  0
3018  1
3019  1
3020  1
3021  4
3022  1
3023  0
3024  5
3025  2
3026  0
3027  3
3028  1
3029  1
3030  4
3031  0
3032  3
3033  1
3034  2
3035  0
3036  0
3037  0
3038  1
3039  1
3040  4
3041  1
3042  1
3043  2
3044  1
3045  2
3046  0
3047  0
3048  0
3049  1
3050  1
3051  0
3052  0
3053  1
3054  0
3055  1
3056  0
3057  1
3058  1
3059  2
3060  0
3061  2
3062  2
3063  1
3064  2
3065  0
3066  0
3067  2
3068  1
3069  0
3070  1
3071  0
3072  0
3073  2
3074  1
3075  0
3076  0
3077  1
3078  1
3079  0
3080  1
3081  3
3082  4
3083  1
3084  0
3085  1
3086  0
3087  2
3088  1
3089  1
3090  2
3091  0
3092  0
3093  1
3094  3
3095  1
3096  0
3097  1
3098  1
3099  2
3100  1
3101  0
3102  0
3103  1
3104  0
3105  1
3106  6
3107  0
3108  2
3109  1
3110  1
3111  3
3112  1
3113  0
3114  1
3115  2
3116  0
3117  2
3118  0
3119  1
3120  2
3121  2
3122  0
3123  0
3124  1
3125  1
3126  2
3127  1
3128  1
3129  0
3130  1
3131  1
3132  1
3133  1
3134  1
3135  2
3136  1
3137  1
3138  0
3139  0
3140  1
3141  1
3142  1
3143  0
3144  1
3145  1
3146  1
3147  0
3148  3
3149  1
3150  1
3151  2
3152  0
3153  0
3154  1
3155  0
3156  0
3157  0
3158  0
3159  0
3160  0
3161  2
3162  1
3163  1
3164  1
3165  0
3166  0
3167  1
3168  0
3169  0
3170  0
3171  2
3172  0
3173  1
3174  0
3175  0
3176  0
3177  0
3178  0
3179  1
3180  0
3181  0
3182  0
3183  0
3184  0
3185  0
3186  1
3187  0
3188  0
3189  2
3190  0
3191  1
3192  1
3193  0
3194  2
3195  1
3196  1
3197  1
3198  0
3199  0
3200  1
3201  0
3202  1
3203  1
3204  0
3205  1
3206  0
3207  1
3208  1
3209  0
3210  1
3211  1
3212  1
3213  1
3214  0
3215  1
3216  0
3217  0
3218  0
3219  0
3220  2
3221  0
3222  2
3223  0
3224  0
3225  0
3226  2
3227  0
3228  0
3229  1
3230  1
3231  0
3232  0
3233  1
3234  0
3235  0
3236  2
3237  1
3238  0
3239  0
3240  0
3241  0
3242  2
3243  0
3244  0
3245  0
3246  0
3247  0
3248  0
3249  0
3250  0
3251  0
3252  0
3253  0
3254  0
3255  0
3256  1
3257  0
3258  0
3259  0
3260  0
3261  0
3262  0
3263  0
3264  0
3265  1
3266  0
3267  2
3268  1
3269  0
3270  0
3271  1
3272  0
3273  0
3274  0
3275  1
3276  0
3277  0
3278  0
3279  0
3280  0
3281  0
3282  0
3283  0
3284  2
3285  0
3286  0
3287  0
3288  1
3289  1
3290  1
3291  0
3292  1
3293  2
3294  0
3295  0
3296  1
3297  0
3298  0
3299  0
3300  0
3301  1
3302  0
3303  1
3304  0
3305  1
3306  0
3307  0
3308  0
3309  0
3310  0
3311  1
3312  1
3313  0
3314  0
3315  1
3316  0
3317  1
3318  1
3319  0
3320  0
3321  0
3322  2
3323  1
3324  2
3325  0
3326  0
3327  0
3328  1
3329  1
3330  0
3331  0
3332  0
3333  1
3334  1
3335  1
3336  0
3337  1
3338  1
3339  0
3340  1
3341  1
3342  0
3343  0
3344  0
3345  0
3346  0
3347  0
3348  0
3349  0
3350  0
3351  0
3352  1
3353  0
3354  0
3355  0
3356  0
3357  0
3358  0
3359  0
3360  0
3361  0
3362  0
3363  0
3364  0
3365  0
3366  0
3367  0
3368  0
3369  0
3370  0
3371  0
3372  1
3373  1
3374  0
3375  0
3376  0
3377  0
3378  0
3379  0
3380  0
3381  0
3382  0
3383  0
3384  0
3385  0
3386  0
3387  0
3388  1
3389  0
3390  2
3391  0
3392  1
3393  0
3394  0
3395  1
3396  0
3397  1
3398  0
3399  2
3400  0
3401  1
3402  0
3403  0
3404  0
3405  0
3406  0
3407  0
3408  1
3409  0
3410  0
3411  0
3412  0
3413  1
3414  0
3415  0
3416  1
3417  0
3418  0
3419  0
3420  0
3421  1
3422  1
3423  0
3424  0
3425  0
3426  0
3427  0
3428  1
3429  0
3430  0
3431  0
3432  0
3433  0
3434  0
3435  0
3436  0
3437  0
3438  1
3439  0
3440  0
3441  1
3442  0
3443  0
3444  0
3445  1
3446  0
3447  0
3448  0
3449  0
3450  0
3451  0
3452  0
3453  2
3454  0
3455  0
3456  0
3457  0
3458  0
3459  1
3460  0
3461  0
3462  1
3463  0
3464  0
3465  0
3466  0
3467  0
3468  0
3469  0
3470  1
3471  1
3472  0
3473  0
3474  0
3475  0
3476  3
3477  1
3478  0
3479  0
3480  0
3481  1
3482  1
3483  1
3484  0
3485  1
3486  0
3487  1
3488  0
3489  1
3490  0
3491  0
3492  0
3493  1
3494  0
3495  3
3496  2
3497  1
3498  0
3499  1
3500  1
3501  0
3502  2
3503  0
3504  1
3505  1
3506  2
3507  1
3508  0
3509  0
3510  0
3511  0
3512  0
3513  0
3514  0
3515  0
3516  1
3517  0
3518  0
3519  0
3520  0
3521  0
3522  0
3523  0
3524  0
3525  1
3526  0
3527  0
3528  0
3529  0
3530  0
3531  0
3532  0
3533  0
3534  0
3535  0
3536  0
3537  0
3538  0
3539  0
3540  0
3541  0
3542  0
3543  0
3544  0
3545  0
3546  0
3547  0
3548  0
3549  0
3550  0
3551  0
3552  0
3553  0
3554  0
3555  0
3556  1
3557  0
3558  0
3559  0
3560  1
3561  0
3562  0
3563  0
3564  0
3565  0
3566  0
3567  0
3568  0
3569  1
3570  1
3571  0
3572  0
3573  0
3574  0
3575  0
3576  0
3577  0
3578  0
3579  0
3580  0
3581  0
3582  1
3583  0
3584  0
3585  0
3586  1
3587  0
3588  2
3589  1
3590  1
3591  1
3592  0
3593  0
3594  0
3595  0
3596  1
3597  0
3598  1
3599  1
3600  0
3601  0
3602  0
3603  0
3604  0
3605  0
3606  0
3607  0
3608  0
3609  0
3610  0
3611  0
3612  0
3613  0
3614  0
3615  0
3616  0
3617  0
3618  0
3619  0
3620  0
3621  0
3622  0
3623  0
3624  0
3625  0
3626  0
3627  0
3628  0
3629  0
3630  0
3631  0
3632  0
3633  0
3634  0
3635  0
3636  0
3637  0
3638  0
3639  0
3640  0
3641  0
3642  0
3643  0
3644  0
3645  0
3646  0
3647  0
3648  0
3649  0
3650  0
3651  0
3652  0
3653  0
3654  0
3655  0
3656  0
3657  0
3658  0
3659  0
3660  0
3661  0
3662  0
3663  0
3664  0
3665  0
3666  0
3667  0
3668  0
3669  0
3670  0
3671  0
3672  0
3673  0
3674  0
3675  0
3676  0
3677  0
3678  0
3679  0
3680  0
3681  0
3682  0
3683  0
3684  0
3685  0
3686  0
3687  0
3688  0
3689  0
3690  0
3691  0
3692  0
3693  0
3694  0
3695  0
3696  0
3697  0
3698  0
3699  0
3700  0
3701  0
3702  0
3703  0
3704  0
3705  0
3706  0
3707  0
3708  0
3709  0
3710  0
3711  0
3712  0
3713  0
3714  0
3715  0
3716  0
3717  0
3718  0
3719  0
3720  0
3721  0
3722  0
3723  0
3724  0
3725  0
3726  0
3727  0
3728  0
3729  0
3730  0
3731  0
3732  0
3733  0
3734  0
3735  0
3736  0
3737  0
3738  0
3739  0
3740  0
3741  0
3742  0
3743  0
3744  0
3745  0
3746  0
3747  0
3748  0
3749  0
3750  0
3751  0
3752  0
3753  0
3754  0
3755  0
3756  0
3757  0
3758  0
3759  0
3760  0
3761  0
3762  0
3763  0
3764  0
3765  0
3766  0
3767  0
3768  0
3769  0
3770  0
3771  0
3772  0
3773  0
3774  0
3775  0
3776  0
3777  0
3778  0
3779  0
3780  0
3781  0
3782  0
3783  0
3784  0
3785  0
3786  0
3787  0
3788  0
3789  0
3790  0
3791  0
3792  0
3793  0
3794  0
3795  0
3796  0
3797  0
3798  0
3799  0
3800  0
3801  0
3802  0
3803  0
3804  0
3805  0
3806  0
3807  0
3808  0
3809  0
3810  0
3811  0
3812  0
3813  0
3814  0
3815  0
3816  0
3817  0
3818  0
3819  0
3820  0
3821  0
3822  0
3823  0
3824  0
3825  0
3826  0
3827  0
3828  0
3829  0
3830  0
3831  0
3832  0
3833  0
3834  0
3835  0
3836  0
3837  0
3838  0
3839  0
3840  0
3841  0
3842  0
3843  0
3844  0
3845  0
3846  0
3847  0
3848  0
3849  0
3850  0
3851  0
3852  0
3853  0
3854  0
3855  0
3856  0
3857  0
3858  0
3859  0
3860  0
3861  0
3862  0
3863  0
3864  0
3865  0
3866  0
3867  0
3868  0
3869  0
3870  0
3871  0
3872  0
3873  0
3874  0
3875  0
3876  0
3877  0
3878  0
3879  0
3880  0
3881  0
3882  0
3883  0
3884  0
3885  0
3886  0
3887  0
3888  0
3889  0
3890  0
3891  0
3892  0
3893  0
3894  0
3895  0
3896  0
3897  0
3898  0
3899  0
3900  0
3901  0
3902  0
3903  0
3904  0
3905  0
3906  0
3907  0
3908  0
3909  0
3910  0
3911  0
3912  0
3913  0
3914  0
3915  0
3916  0
3917  0
3918  0
3919  0
3920  0
3921  0
3922  0
3923  0
3924  0
3925  0
3926  0
3927  0
3928  0
3929  0
3930  0
3931  0
3932  0
3933  0
3934  0
3935  0
3936  0
3937  0
3938  0
3939  0
3940  0
3941  0
3942  0
3943  0
3944  0
3945  0
3946  0
3947  0
3948  0
3949  0
3950  0
3951  0
3952  0
3953  0
3954  0
3955  0
3956  0
3957  0
3958  0
3959  0
3960  0
3961  0
3962  0
3963  0
3964  0
3965  0
3966  0
3967  0
3968  0
3969  0
3970  0
3971  0
3972  0
3973  0
3974  0
3975  0
3976  0
3977  0
3978  0
3979  0
3980  0
3981  0
3982  0
3983  0
3984  0
3985  0
3986  0
3987  0
3988  0
3989  0
3990  0
3991  0
3992  0
3993  0
3994  0
3995  0
3996  0
3997  0
3998  0
3999  0
4000  0
4001  0
4002  0
4003  0
4004  0
4005  0
4006  0
4007  0
4008  0
4009  0
4010  0
4011  0
4012  0
4013  0
4014  0
4015  0
4016  0
4017  0
4018  0
4019  0
4020  0
4021  0
4022  0
4023  0
4024  0
4025  0
4026  0
4027  0
4028  0
4029  0
4030  0
4031  0
4032  0
4033  0
4034  0
4035  0
4036  0
4037  0
4038  0
4039  0
4040  0
4041  0
4042  0
4043  0
4044  0
4045  0
4046  0
4047  0
4048  0
4049  0
4050  0
4051  0
4052  0
4053  0
4054  0
4055  0
4056  0
4057  0
4058  0
4059  0
4060  0
4061  0
4062  0
4063  0
4064  0
4065  0
4066  0
4067  0
4068  0
4069  0
4070  0
4071  0
4072  0
4073  0
4074  0
4075  0
4076  0
4077  0
4078  0
4079  0
4080  0
4081  0
4082  0
4083  0
4084  0
4085  0
4086  0
4087  0
4088  0
4089  0
4090  0
4091  0
4092  0
4093  0
4094  0
4095  0
