0  624
1  746
2  884
3  1105
4  1210
5  1371
6  1534
7  1753
8  2004
9  2159
10  2232
11  2484
12  2439
13  2693
14  2570
15  2669
16  2689
17  2508
18  2474
19  2539
20  2271
21  2096
22  1911
23  1762
24  1584
25  1339
26  1226
27  1053
28  895
29  753
30  652
31  471
32  362
33  347
34  270
35  191
36  150
37  108
38  83
39  74
40  49
41  40
42  23
43  15
44  11
45  8
46  9
47  4
48  1
49  0
50  2
51  0
52  0
53  0
54  0
55  0
56  0
57  0
58  0
59  0
60  0
61  0
62  0
63  0
64  0
65  0
66  0
67  0
68  0
69  0
70  0
71  0
72  0
73  0
74  0
75  0
76  0
77  0
78  0
79  0
80  0
81  0
82  0
83  0
84  0
85  0
86  0
87  0
88  0
89  0
90  0
91  0
92  0
93  0
94  0
95  0
96  0
97  0
98  0
99  0
100  0
101  0
102  0
103  0
104  0
105  0
106  0
107  0
108  0
109  0
110  0
111  0
112  0
113  0
114  0
115  0
116  0
117  0
118  0
119  0
120  0
121  0
122  0
123  0
124  0
125  0
126  0
127  0
128  0
129  0
130  0
131  0
132  0
133  0
134  0
135  0
136  0
137  0
138  0
139  0
140  0
141  0
142  0
143  0
144  0
145  0
146  0
147  0
148  0
149  0
150  0
151  0
152  0
153  0
154  0
155  0
156  0
157  0
158  0
159  0
160  0
161  0
162  0
163  0
164  0
165  0
166  0
167  0
168  0
169  0
170  0
171  0
172  0
173  0
174  0
175  0
176  0
177  0
178  0
179  0
180  0
181  0
182  0
183  0
184  0
185  0
186  1
187  0
188  1
189  2
190  0
191  0
192  0
193  0
194  0
195  2
196  1
197  3
198  10
199  12
200  6
201  13
202  19
203  16
204  23
205  25
206  27
207  33
208  32
209  39
210  57
211  60
212  58
213  67
214  71
215  70
216  78
217  95
218  69
219  93
220  77
221  105
222  86
223  91
224  82
225  90
226  76
227  74
228  62
229  72
230  69
231  62
232  53
233  53
234  34
235  47
236  32
237  33
238  41
239  35
240  30
241  25
242  23
243  27
244  23
245  15
246  21
247  26
248  22
249  20
250  20
251  9
252  12
253  26
254  18
255  22
256  23
257  29
258  22
259  21
260  17
261  18
262  21
263  19
264  13
265  18
266  14
267  17
268  27
269  25
270  8
271  13
272  23
273  14
274  15
275  20
276  16
277  19
278  19
279  12
280  15
281  17
282  17
283  18
284  21
285  18
286  27
287  22
288  20
289  17
290  17
291  13
292  19
293  22
294  21
295  14
296  21
297  15
298  20
299  17
300  26
301  16
302  15
303  22
304  19
305  21
306  23
307  24
308  15
309  16
310  16
311  22
312  15
313  18
314  16
315  11
316  25
317  22
318  16
319  16
320  17
321  23
322  15
323  25
324  26
325  22
326  23
327  14
328  25
329  23
330  20
331  21
332  17
333  13
334  20
335  16
336  18
337  17
338  17
339  19
340  20
341  20
342  12
343  16
344  12
345  18
346  19
347  29
348  20
349  18
350  18
351  13
352  16
353  15
354  21
355  16
356  18
357  13
358  25
359  9
360  19
361  19
362  19
363  19
364  25
365  15
366  18
367  12
368  15
369  18
370  19
371  12
372  19
373  32
374  27
375  23
376  19
377  17
378  23
379  14
380  14
381  25
382  13
383  24
384  14
385  17
386  22
387  21
388  22
389  21
390  15
391  16
392  10
393  20
394  11
395  13
396  13
397  18
398  13
399  23
400  18
401  11
402  24
403  8
404  14
405  25
406  17
407  23
408  23
409  23
410  22
411  26
412  22
413  24
414  23
415  14
416  14
417  15
418  19
419  21
420  11
421  23
422  12
423  25
424  18
425  19
426  18
427  19
428  19
429  22
430  20
431  17
432  14
433  23
434  13
435  17
436  18
437  24
438  20
439  19
440  22
441  18
442  14
443  18
444  23
445  17
446  14
447  26
448  18
449  13
450  16
451  25
452  17
453  18
454  12
455  13
456  11
457  21
458  19
459  15
460  17
461  16
462  12
463  12
464  13
465  18
466  12
467  24
468  19
469  17
470  18
471  13
472  15
473  14
474  20
475  18
476  16
477  14
478  16
479  18
480  16
481  17
482  17
483  16
484  23
485  22
486  17
487  13
488  12
489  12
490  21
491  25
492  19
493  23
494  16
495  17
496  14
497  16
498  19
499  24
500  18
501  13
502  18
503  17
504  16
505  11
506  16
507  23
508  17
509  10
510  17
511  19
512  16
513  14
514  11
515  16
516  23
517  13
518  23
519  23
520  14
521  19
522  17
523  16
524  13
525  18
526  23
527  15
528  18
529  18
530  21
531  19
532  22
533  17
534  13
535  21
536  22
537  17
538  21
539  18
540  17
541  18
542  11
543  15
544  18
545  18
546  24
547  15
548  13
549  19
550  13
551  17
552  18
553  20
554  19
555  12
556  11
557  16
558  18
559  11
560  21
561  10
562  19
563  18
564  19
565  24
566  15
567  18
568  21
569  12
570  14
571  14
572  20
573  21
574  11
575  10
576  23
577  21
578  16
579  14
580  21
581  17
582  17
583  18
584  14
585  18
586  14
587  24
588  15
589  17
590  15
591  23
592  21
593  19
594  13
595  16
596  18
597  24
598  15
599  15
600  11
601  15
602  19
603  19
604  14
605  24
606  21
607  20
608  19
609  18
610  16
611  18
612  25
613  21
614  19
615  14
616  11
617  20
618  11
619  10
620  12
621  13
622  18
623  22
624  18
625  17
626  15
627  15
628  10
629  26
630  21
631  15
632  22
633  13
634  17
635  16
636  17
637  10
638  21
639  16
640  25
641  18
642  19
643  10
644  20
645  16
646  17
647  19
648  19
649  24
650  20
651  12
652  26
653  22
654  18
655  20
656  23
657  18
658  12
659  13
660  19
661  12
662  22
663  13
664  11
665  17
666  14
667  16
668  21
669  17
670  13
671  22
672  21
673  15
674  10
675  14
676  18
677  16
678  12
679  19
680  16
681  20
682  14
683  24
684  14
685  11
686  12
687  17
688  15
689  25
690  20
691  25
692  13
693  20
694  19
695  15
696  10
697  20
698  24
699  10
700  23
701  21
702  12
703  20
704  19
705  18
706  17
707  20
708  20
709  11
710  23
711  29
712  16
713  20
714  18
715  25
716  21
717  15
718  16
719  20
720  19
721  17
722  18
723  19
724  14
725  22
726  20
727  22
728  13
729  13
730  25
731  19
732  17
733  16
734  16
735  21
736  19
737  13
738  20
739  22
740  22
741  17
742  26
743  17
744  16
745  18
746  23
747  21
748  8
749  11
750  14
751  20
752  17
753  19
754  21
755  16
756  18
757  23
758  14
759  17
760  19
761  23
762  22
763  17
764  22
765  22
766  34
767  23
768  16
769  23
770  21
771  16
772  15
773  25
774  23
775  14
776  25
777  23
778  18
779  11
780  20
781  16
782  21
783  25
784  20
785  24
786  31
787  22
788  22
789  16
790  19
791  13
792  19
793  18
794  16
795  19
796  12
797  21
798  13
799  25
800  15
801  15
802  18
803  25
804  21
805  22
806  29
807  11
808  19
809  19
810  13
811  16
812  20
813  19
814  19
815  14
816  20
817  18
818  22
819  16
820  13
821  15
822  28
823  13
824  16
825  11
826  17
827  19
828  14
829  27
830  20
831  17
832  13
833  14
834  15
835  16
836  13
837  22
838  24
839  26
840  15
841  21
842  16
843  30
844  25
845  16
846  17
847  12
848  25
849  24
850  24
851  11
852  17
853  15
854  15
855  12
856  15
857  18
858  20
859  15
860  15
861  17
862  25
863  23
864  23
865  22
866  19
867  23
868  28
869  13
870  20
871  19
872  19
873  21
874  16
875  20
876  19
877  14
878  24
879  16
880  20
881  26
882  25
883  19
884  10
885  18
886  12
887  16
888  15
889  13
890  17
891  22
892  18
893  12
894  23
895  20
896  25
897  15
898  19
899  18
900  24
901  19
902  17
903  18
904  21
905  21
906  12
907  23
908  17
909  22
910  13
911  14
912  13
913  18
914  19
915  19
916  27
917  18
918  20
919  22
920  10
921  14
922  17
923  18
924  20
925  17
926  21
927  17
928  14
929  23
930  10
931  15
932  22
933  16
934  25
935  15
936  19
937  20
938  14
939  22
940  18
941  20
942  15
943  20
944  17
945  24
946  15
947  12
948  13
949  22
950  13
951  16
952  14
953  20
954  21
955  22
956  16
957  14
958  22
959  25
960  25
961  15
962  19
963  18
964  13
965  17
966  16
967  13
968  18
969  25
970  19
971  18
972  19
973  15
974  16
975  18
976  11
977  16
978  21
979  23
980  16
981  18
982  19
983  14
984  20
985  19
986  23
987  22
988  15
989  17
990  17
991  17
992  21
993  27
994  13
995  19
996  28
997  12
998  10
999  21
1000  20
1001  25
1002  19
1003  19
1004  24
1005  23
1006  15
1007  17
1008  17
1009  24
1010  13
1011  17
1012  12
1013  21
1014  7
1015  18
1016  18
1017  22
1018  13
1019  22
1020  22
1021  18
1022  17
1023  16
1024  16
1025  20
1026  16
1027  13
1028  26
1029  12
1030  28
1031  15
1032  20
1033  13
1034  17
1035  21
1036  11
1037  19
1038  17
1039  20
1040  16
1041  28
1042  28
1043  20
1044  13
1045  21
1046  18
1047  16
1048  14
1049  14
1050  16
1051  16
1052  14
1053  20
1054  23
1055  23
1056  18
1057  11
1058  13
1059  22
1060  23
1061  15
1062  14
1063  17
1064  24
1065  24
1066  18
1067  13
1068  21
1069  12
1070  18
1071  18
1072  25
1073  18
1074  31
1075  13
1076  20
1077  19
1078  20
1079  12
1080  15
1081  21
1082  17
1083  16
1084  18
1085  17
1086  15
1087  21
1088  12
1089  11
1090  16
1091  18
1092  24
1093  23
1094  15
1095  20
1096  22
1097  23
1098  20
1099  28
1100  23
1101  15
1102  16
1103  17
1104  19
1105  26
1106  16
1107  18
1108  15
1109  13
1110  20
1111  15
1112  20
1113  19
1114  20
1115  17
1116  18
1117  17
1118  20
1119  24
1120  16
1121  15
1122  13
1123  19
1124  24
1125  24
1126  24
1127  24
1128  14
1129  15
1130  18
1131  24
1132  21
1133  15
1134  23
1135  18
1136  19
1137  21
1138  12
1139  20
1140  27
1141  30
1142  16
1143  18
1144  14
1145  22
1146  19
1147  17
1148  21
1149  26
1150  20
1151  13
1152  13
1153  26
1154  13
1155  14
1156  22
1157  21
1158  13
1159  25
1160  23
1161  16
1162  23
1163  23
1164  26
1165  24
1166  14
1167  20
1168  21
1169  24
1170  10
1171  15
1172  12
1173  18
1174  22
1175  13
1176  17
1177  20
1178  21
1179  22
1180  18
1181  13
1182  16
1183  26
1184  22
1185  19
1186  16
1187  17
1188  24
1189  22
1190  21
1191  22
1192  22
1193  19
1194  23
1195  19
1196  16
1197  19
1198  10
1199  14
1200  22
1201  18
1202  17
1203  29
1204  18
1205  19
1206  13
1207  23
1208  24
1209  18
1210  17
1211  18
1212  17
1213  18
1214  29
1215  26
1216  11
1217  15
1218  21
1219  13
1220  15
1221  12
1222  28
1223  25
1224  23
1225  14
1226  21
1227  14
1228  23
1229  23
1230  15
1231  20
1232  17
1233  21
1234  14
1235  17
1236  21
1237  19
1238  19
1239  21
1240  13
1241  17
1242  25
1243  19
1244  15
1245  16
1246  21
1247  27
1248  19
1249  22
1250  21
1251  15
1252  15
1253  14
1254  17
1255  12
1256  21
1257  20
1258  30
1259  23
1260  23
1261  22
1262  22
1263  19
1264  19
1265  20
1266  16
1267  24
1268  20
1269  15
1270  19
1271  22
1272  20
1273  21
1274  26
1275  33
1276  18
1277  23
1278  17
1279  26
1280  12
1281  18
1282  20
1283  16
1284  18
1285  17
1286  23
1287  26
1288  24
1289  21
1290  24
1291  24
1292  17
1293  16
1294  37
1295  17
1296  17
1297  24
1298  14
1299  12
1300  21
1301  23
1302  17
1303  28
1304  23
1305  31
1306  23
1307  20
1308  22
1309  21
1310  21
1311  26
1312  21
1313  21
1314  22
1315  19
1316  30
1317  20
1318  20
1319  23
1320  18
1321  18
1322  22
1323  20
1324  20
1325  21
1326  24
1327  16
1328  29
1329  18
1330  21
1331  30
1332  18
1333  23
1334  19
1335  21
1336  25
1337  27
1338  22
1339  20
1340  23
1341  33
1342  19
1343  15
1344  25
1345  22
1346  26
1347  20
1348  20
1349  22
1350  27
1351  19
1352  19
1353  17
1354  23
1355  24
1356  19
1357  37
1358  15
1359  24
1360  27
1361  27
1362  30
1363  31
1364  23
1365  27
1366  32
1367  24
1368  15
1369  14
1370  22
1371  22
1372  26
1373  23
1374  25
1375  23
1376  24
1377  24
1378  24
1379  28
1380  25
1381  19
1382  24
1383  19
1384  22
1385  31
1386  18
1387  40
1388  16
1389  26
1390  25
1391  26
1392  28
1393  32
1394  22
1395  27
1396  26
1397  23
1398  21
1399  20
1400  28
1401  26
1402  19
1403  23
1404  20
1405  34
1406  27
1407  23
1408  26
1409  27
1410  17
1411  18
1412  23
1413  22
1414  24
1415  32
1416  29
1417  27
1418  25
1419  24
1420  24
1421  18
1422  30
1423  25
1424  32
1425  25
1426  40
1427  29
1428  24
1429  33
1430  24
1431  24
1432  31
1433  34
1434  34
1435  26
1436  24
1437  31
1438  30
1439  40
1440  23
1441  22
1442  24
1443  35
1444  32
1445  27
1446  32
1447  42
1448  33
1449  35
1450  29
1451  26
1452  33
1453  29
1454  44
1455  34
1456  44
1457  24
1458  22
1459  31
1460  29
1461  43
1462  32
1463  23
1464  36
1465  40
1466  26
1467  36
1468  33
1469  31
1470  44
1471  38
1472  40
1473  27
1474  32
1475  32
1476  38
1477  37
1478  38
1479  41
1480  27
1481  41
1482  43
1483  45
1484  41
1485  37
1486  32
1487  46
1488  43
1489  40
1490  42
1491  39
1492  49
1493  46
1494  47
1495  34
1496  31
1497  36
1498  40
1499  35
1500  31
1501  50
1502  44
1503  40
1504  39
1505  42
1506  46
1507  46
1508  39
1509  42
1510  40
1511  52
1512  43
1513  48
1514  48
1515  49
1516  48
1517  44
1518  46
1519  33
1520  51
1521  42
1522  50
1523  52
1524  52
1525  38
1526  47
1527  52
1528  45
1529  61
1530  61
1531  57
1532  56
1533  40
1534  60
1535  48
1536  42
1537  53
1538  46
1539  49
1540  43
1541  66
1542  39
1543  55
1544  57
1545  53
1546  55
1547  56
1548  56
1549  59
1550  50
1551  64
1552  64
1553  61
1554  60
1555  48
1556  42
1557  51
1558  69
1559  56
1560  57
1561  56
1562  48
1563  53
1564  52
1565  53
1566  53
1567  48
1568  54
1569  53
1570  58
1571  61
1572  54
1573  61
1574  40
1575  49
1576  43
1577  55
1578  49
1579  57
1580  47
1581  48
1582  49
1583  65
1584  55
1585  57
1586  64
1587  56
1588  39
1589  55
1590  64
1591  60
1592  42
1593  54
1594  47
1595  59
1596  58
1597  57
1598  36
1599  64
1600  60
1601  40
1602  60
1603  53
1604  48
1605  62
1606  62
1607  45
1608  49
1609  49
1610  48
1611  43
1612  33
1613  37
1614  48
1615  39
1616  50
1617  51
1618  46
1619  39
1620  60
1621  42
1622  34
1623  43
1624  47
1625  52
1626  47
1627  36
1628  41
1629  58
1630  46
1631  51
1632  60
1633  41
1634  55
1635  44
1636  56
1637  49
1638  48
1639  41
1640  36
1641  50
1642  44
1643  44
1644  40
1645  38
1646  45
1647  39
1648  48
1649  47
1650  41
1651  44
1652  46
1653  33
1654  44
1655  47
1656  42
1657  35
1658  33
1659  56
1660  57
1661  45
1662  46
1663  59
1664  46
1665  48
1666  52
1667  37
1668  67
1669  42
1670  43
1671  61
1672  52
1673  49
1674  57
1675  66
1676  58
1677  61
1678  65
1679  65
1680  60
1681  74
1682  72
1683  79
1684  74
1685  73
1686  93
1687  87
1688  82
1689  103
1690  79
1691  109
1692  118
1693  128
1694  118
1695  133
1696  118
1697  140
1698  154
1699  170
1700  216
1701  188
1702  190
1703  212
1704  250
1705  249
1706  236
1707  294
1708  327
1709  287
1710  318
1711  373
1712  390
1713  377
1714  426
1715  417
1716  419
1717  410
1718  456
1719  471
1720  499
1721  517
1722  531
1723  543
1724  584
1725  563
1726  662
1727  631
1728  704
1729  633
1730  683
1731  676
1732  703
1733  752
1734  708
1735  796
1736  835
1737  755
1738  774
1739  800
1740  844
1741  815
1742  806
1743  889
1744  822
1745  871
1746  879
1747  840
1748  905
1749  881
1750  933
1751  895
1752  970
1753  901
1754  959
1755  913
1756  867
1757  880
1758  869
1759  869
1760  893
1761  858
1762  873
1763  837
1764  838
1765  828
1766  784
1767  797
1768  793
1769  794
1770  707
1771  680
1772  713
1773  677
1774  661
1775  630
1776  648
1777  600
1778  580
1779  527
1780  547
1781  510
1782  467
1783  469
1784  450
1785  418
1786  410
1787  383
1788  389
1789  367
1790  326
1791  323
1792  286
1793  263
1794  284
1795  257
1796  267
1797  242
1798  242
1799  229
1800  224
1801  209
1802  211
1803  186
1804  167
1805  177
1806  150
1807  138
1808  148
1809  140
1810  125
1811  105
1812  103
1813  107
1814  99
1815  95
1816  110
1817  100
1818  79
1819  75
1820  94
1821  78
1822  84
1823  75
1824  100
1825  88
1826  85
1827  91
1828  123
1829  124
1830  139
1831  139
1832  180
1833  223
1834  231
1835  311
1836  375
1837  424
1838  536
1839  649
1840  730
1841  882
1842  1045
1843  1158
1844  1388
1845  1572
1846  1862
1847  2074
1848  2294
1849  2490
1850  2702
1851  3050
1852  3262
1853  3368
1854  3683
1855  3806
1856  4061
1857  4201
1858  4241
1859  4389
1860  4268
1861  4221
1862  4246
1863  4155
1864  4052
1865  3844
1866  3694
1867  3501
1868  3394
1869  3119
1870  3000
1871  2834
1872  2527
1873  2424
1874  2213
1875  2010
1876  1871
1877  1678
1878  1527
1879  1377
1880  1298
1881  1172
1882  1080
1883  1008
1884  977
1885  836
1886  819
1887  721
1888  679
1889  623
1890  567
1891  579
1892  535
1893  490
1894  420
1895  419
1896  358
1897  342
1898  321
1899  286
1900  246
1901  267
1902  231
1903  224
1904  236
1905  205
1906  165
1907  158
1908  129
1909  126
1910  142
1911  110
1912  99
1913  88
1914  87
1915  90
1916  86
1917  71
1918  53
1919  51
1920  63
1921  63
1922  34
1923  51
1924  31
1925  37
1926  38
1927  36
1928  28
1929  43
1930  26
1931  29
1932  25
1933  27
1934  11
1935  29
1936  19
1937  11
1938  16
1939  22
1940  18
1941  23
1942  15
1943  19
1944  9
1945  23
1946  16
1947  22
1948  17
1949  20
1950  10
1951  10
1952  12
1953  22
1954  16
1955  17
1956  23
1957  17
1958  22
1959  10
1960  12
1961  18
1962  10
1963  12
1964  16
1965  14
1966  16
1967  16
1968  18
1969  12
1970  20
1971  12
1972  15
1973  20
1974  15
1975  13
1976  19
1977  18
1978  13
1979  15
1980  16
1981  10
1982  15
1983  10
1984  18
1985  12
1986  19
1987  16
1988  18
1989  26
1990  24
1991  21
1992  24
1993  21
1994  17
1995  16
1996  24
1997  19
1998  12
1999  17
2000  14
2001  20
2002  14
2003  14
2004  18
2005  25
2006  30
2007  24
2008  15
2009  20
2010  13
2011  16
2012  16
2013  20
2014  23
2015  13
2016  18
2017  17
2018  24
2019  14
2020  18
2021  24
2022  21
2023  15
2024  14
2025  17
2026  19
2027  12
2028  23
2029  22
2030  16
2031  17
2032  19
2033  23
2034  15
2035  18
2036  16
2037  15
2038  17
2039  11
2040  25
2041  21
2042  20
2043  19
2044  13
2045  17
2046  10
2047  19
2048  15
2049  13
2050  22
2051  22
2052  25
2053  19
2054  14
2055  12
2056  19
2057  13
2058  15
2059  19
2060  22
2061  16
2062  17
2063  22
2064  28
2065  15
2066  24
2067  27
2068  17
2069  20
2070  11
2071  19
2072  17
2073  19
2074  17
2075  16
2076  13
2077  18
2078  18
2079  14
2080  21
2081  24
2082  17
2083  14
2084  16
2085  18
2086  13
2087  19
2088  9
2089  14
2090  24
2091  20
2092  15
2093  9
2094  18
2095  11
2096  12
2097  30
2098  21
2099  21
2100  25
2101  10
2102  15
2103  23
2104  19
2105  21
2106  14
2107  11
2108  15
2109  15
2110  24
2111  26
2112  22
2113  26
2114  19
2115  26
2116  14
2117  24
2118  12
2119  14
2120  16
2121  24
2122  22
2123  14
2124  19
2125  15
2126  25
2127  20
2128  13
2129  20
2130  17
2131  16
2132  16
2133  12
2134  19
2135  26
2136  16
2137  23
2138  25
2139  24
2140  12
2141  20
2142  20
2143  22
2144  25
2145  16
2146  22
2147  22
2148  16
2149  27
2150  26
2151  26
2152  28
2153  17
2154  21
2155  15
2156  12
2157  18
2158  13
2159  22
2160  17
2161  23
2162  15
2163  26
2164  17
2165  20
2166  20
2167  18
2168  18
2169  12
2170  28
2171  30
2172  21
2173  27
2174  18
2175  18
2176  12
2177  14
2178  20
2179  17
2180  29
2181  16
2182  12
2183  16
2184  15
2185  24
2186  18
2187  23
2188  18
2189  16
2190  19
2191  15
2192  23
2193  12
2194  20
2195  22
2196  32
2197  19
2198  11
2199  16
2200  20
2201  14
2202  20
2203  19
2204  12
2205  24
2206  18
2207  18
2208  22
2209  18
2210  10
2211  19
2212  18
2213  20
2214  16
2215  17
2216  13
2217  13
2218  17
2219  20
2220  20
2221  13
2222  23
2223  17
2224  14
2225  17
2226  14
2227  17
2228  16
2229  22
2230  18
2231  11
2232  20
2233  12
2234  20
2235  15
2236  20
2237  26
2238  13
2239  10
2240  14
2241  22
2242  23
2243  12
2244  11
2245  17
2246  14
2247  20
2248  15
2249  26
2250  14
2251  22
2252  17
2253  19
2254  18
2255  16
2256  17
2257  19
2258  29
2259  18
2260  23
2261  14
2262  30
2263  12
2264  16
2265  19
2266  15
2267  14
2268  19
2269  7
2270  20
2271  16
2272  20
2273  11
2274  19
2275  24
2276  13
2277  22
2278  21
2279  25
2280  14
2281  25
2282  14
2283  14
2284  14
2285  20
2286  16
2287  21
2288  25
2289  19
2290  18
2291  28
2292  19
2293  21
2294  27
2295  23
2296  27
2297  18
2298  14
2299  13
2300  19
2301  16
2302  27
2303  17
2304  17
2305  17
2306  24
2307  24
2308  11
2309  18
2310  18
2311  14
2312  14
2313  22
2314  17
2315  16
2316  12
2317  18
2318  13
2319  20
2320  22
2321  23
2322  19
2323  12
2324  18
2325  18
2326  22
2327  21
2328  14
2329  15
2330  18
2331  24
2332  15
2333  14
2334  20
2335  18
2336  16
2337  20
2338  18
2339  15
2340  16
2341  8
2342  19
2343  15
2344  14
2345  13
2346  14
2347  17
2348  14
2349  23
2350  10
2351  23
2352  14
2353  14
2354  22
2355  17
2356  20
2357  15
2358  22
2359  18
2360  18
2361  21
2362  13
2363  16
2364  30
2365  20
2366  23
2367  18
2368  13
2369  21
2370  20
2371  10
2372  11
2373  15
2374  19
2375  17
2376  10
2377  22
2378  17
2379  17
2380  21
2381  17
2382  18
2383  22
2384  19
2385  14
2386  18
2387  24
2388  15
2389  9
2390  24
2391  16
2392  20
2393  23
2394  13
2395  18
2396  24
2397  16
2398  23
2399  17
2400  19
2401  24
2402  17
2403  22
2404  16
2405  29
2406  16
2407  21
2408  17
2409  13
2410  19
2411  13
2412  20
2413  19
2414  15
2415  16
2416  15
2417  13
2418  19
2419  21
2420  16
2421  17
2422  16
2423  23
2424  16
2425  13
2426  16
2427  19
2428  18
2429  17
2430  13
2431  14
2432  22
2433  29
2434  13
2435  19
2436  21
2437  16
2438  21
2439  15
2440  17
2441  24
2442  17
2443  25
2444  22
2445  17
2446  23
2447  19
2448  21
2449  16
2450  15
2451  21
2452  14
2453  18
2454  27
2455  20
2456  19
2457  14
2458  19
2459  20
2460  12
2461  19
2462  28
2463  11
2464  18
2465  17
2466  13
2467  25
2468  14
2469  18
2470  18
2471  18
2472  17
2473  15
2474  13
2475  20
2476  17
2477  13
2478  27
2479  22
2480  18
2481  19
2482  21
2483  26
2484  18
2485  12
2486  11
2487  16
2488  18
2489  20
2490  24
2491  23
2492  15
2493  19
2494  23
2495  30
2496  16
2497  23
2498  23
2499  17
2500  23
2501  22
2502  11
2503  20
2504  21
2505  16
2506  25
2507  9
2508  13
2509  26
2510  11
2511  24
2512  19
2513  13
2514  18
2515  15
2516  17
2517  22
2518  25
2519  16
2520  21
2521  24
2522  14
2523  27
2524  17
2525  26
2526  8
2527  18
2528  13
2529  18
2530  17
2531  22
2532  23
2533  19
2534  23
2535  19
2536  20
2537  13
2538  17
2539  19
2540  11
2541  26
2542  18
2543  15
2544  13
2545  28
2546  13
2547  14
2548  18
2549  23
2550  15
2551  11
2552  17
2553  21
2554  20
2555  13
2556  19
2557  12
2558  24
2559  18
2560  18
2561  12
2562  20
2563  18
2564  18
2565  22
2566  19
2567  11
2568  26
2569  16
2570  14
2571  17
2572  23
2573  17
2574  14
2575  18
2576  21
2577  13
2578  13
2579  23
2580  18
2581  16
2582  16
2583  22
2584  29
2585  20
2586  24
2587  23
2588  14
2589  24
2590  24
2591  21
2592  15
2593  17
2594  6
2595  19
2596  16
2597  16
2598  22
2599  19
2600  15
2601  20
2602  15
2603  17
2604  17
2605  21
2606  15
2607  15
2608  23
2609  22
2610  14
2611  18
2612  20
2613  21
2614  10
2615  21
2616  20
2617  23
2618  17
2619  10
2620  22
2621  19
2622  22
2623  20
2624  15
2625  27
2626  15
2627  11
2628  11
2629  14
2630  14
2631  17
2632  16
2633  19
2634  20
2635  19
2636  20
2637  15
2638  16
2639  11
2640  9
2641  17
2642  15
2643  20
2644  17
2645  21
2646  17
2647  18
2648  15
2649  15
2650  16
2651  14
2652  14
2653  21
2654  16
2655  18
2656  18
2657  16
2658  17
2659  20
2660  21
2661  15
2662  16
2663  21
2664  17
2665  25
2666  23
2667  18
2668  18
2669  15
2670  17
2671  18
2672  9
2673  20
2674  23
2675  20
2676  17
2677  25
2678  19
2679  18
2680  21
2681  23
2682  22
2683  23
2684  22
2685  15
2686  22
2687  18
2688  20
2689  16
2690  25
2691  13
2692  20
2693  14
2694  19
2695  20
2696  23
2697  17
2698  22
2699  26
2700  13
2701  16
2702  19
2703  18
2704  22
2705  20
2706  18
2707  18
2708  23
2709  17
2710  22
2711  15
2712  11
2713  14
2714  24
2715  13
2716  19
2717  18
2718  15
2719  12
2720  14
2721  19
2722  20
2723  18
2724  14
2725  19
2726  6
2727  21
2728  14
2729  16
2730  27
2731  13
2732  9
2733  16
2734  17
2735  15
2736  17
2737  24
2738  18
2739  26
2740  16
2741  16
2742  19
2743  16
2744  22
2745  26
2746  14
2747  28
2748  25
2749  17
2750  19
2751  15
2752  31
2753  12
2754  9
2755  19
2756  20
2757  16
2758  18
2759  13
2760  23
2761  14
2762  13
2763  21
2764  19
2765  18
2766  13
2767  14
2768  15
2769  14
2770  14
2771  24
2772  21
2773  16
2774  23
2775  25
2776  24
2777  19
2778  20
2779  16
2780  19
2781  20
2782  17
2783  23
2784  19
2785  18
2786  17
2787  16
2788  24
2789  21
2790  26
2791  16
2792  13
2793  17
2794  13
2795  13
2796  18
2797  24
2798  21
2799  18
2800  18
2801  25
2802  16
2803  17
2804  18
2805  18
2806  17
2807  16
2808  16
2809  23
2810  13
2811  16
2812  17
2813  22
2814  16
2815  15
2816  13
2817  20
2818  17
2819  18
2820  10
2821  19
2822  22
2823  16
2824  14
2825  15
2826  27
2827  18
2828  28
2829  21
2830  13
2831  17
2832  16
2833  25
2834  23
2835  25
2836  15
2837  17
2838  24
2839  16
2840  18
2841  14
2842  17
2843  19
2844  11
2845  15
2846  12
2847  17
2848  17
2849  16
2850  10
2851  24
2852  14
2853  20
2854  18
2855  13
2856  18
2857  18
2858  14
2859  13
2860  19
2861  17
2862  19
2863  14
2864  20
2865  15
2866  13
2867  15
2868  24
2869  19
2870  19
2871  11
2872  19
2873  16
2874  22
2875  14
2876  23
2877  13
2878  14
2879  15
2880  18
2881  22
2882  12
2883  10
2884  11
2885  13
2886  18
2887  10
2888  19
2889  13
2890  16
2891  22
2892  16
2893  12
2894  15
2895  12
2896  25
2897  32
2898  24
2899  21
2900  18
2901  19
2902  10
2903  16
2904  22
2905  15
2906  24
2907  21
2908  18
2909  19
2910  13
2911  21
2912  26
2913  16
2914  18
2915  24
2916  15
2917  17
2918  19
2919  14
2920  17
2921  18
2922  23
2923  22
2924  20
2925  22
2926  19
2927  9
2928  20
2929  14
2930  14
2931  16
2932  26
2933  15
2934  19
2935  19
2936  18
2937  17
2938  17
2939  27
2940  18
2941  19
2942  13
2943  18
2944  19
2945  23
2946  24
2947  9
2948  21
2949  20
2950  12
2951  17
2952  19
2953  24
2954  25
2955  12
2956  16
2957  11
2958  26
2959  20
2960  22
2961  24
2962  16
2963  19
2964  10
2965  22
2966  19
2967  12
2968  25
2969  17
2970  19
2971  21
2972  17
2973  24
2974  19
2975  22
2976  22
2977  17
2978  21
2979  17
2980  23
2981  18
2982  23
2983  19
2984  21
2985  29
2986  16
2987  18
2988  18
2989  23
2990  14
2991  19
2992  17
2993  25
2994  22
2995  15
2996  13
2997  26
2998  24
2999  18
3000  14
3001  18
3002  20
3003  19
3004  18
3005  15
3006  24
3007  10
3008  24
3009  18
3010  16
3011  29
3012  17
3013  18
3014  19
3015  24
3016  26
3017  15
3018  16
3019  26
3020  23
3021  14
3022  21
3023  18
3024  17
3025  17
3026  19
3027  22
3028  17
3029  26
3030  17
3031  17
3032  27
3033  12
3034  21
3035  16
3036  15
3037  15
3038  28
3039  22
3040  20
3041  24
3042  23
3043  19
3044  22
3045  32
3046  18
3047  17
3048  23
3049  24
3050  19
3051  20
3052  18
3053  24
3054  20
3055  19
3056  23
3057  20
3058  25
3059  21
3060  17
3061  27
3062  18
3063  12
3064  29
3065  14
3066  16
3067  30
3068  18
3069  19
3070  27
3071  14
3072  21
3073  23
3074  26
3075  24
3076  19
3077  16
3078  16
3079  21
3080  17
3081  19
3082  16
3083  17
3084  25
3085  21
3086  17
3087  21
3088  16
3089  22
3090  21
3091  23
3092  13
3093  21
3094  21
3095  17
3096  18
3097  12
3098  22
3099  25
3100  21
3101  18
3102  17
3103  15
3104  28
3105  23
3106  23
3107  22
3108  15
3109  20
3110  14
3111  15
3112  15
3113  14
3114  20
3115  28
3116  12
3117  17
3118  17
3119  18
3120  15
3121  19
3122  20
3123  15
3124  22
3125  18
3126  18
3127  19
3128  22
3129  27
3130  22
3131  25
3132  19
3133  16
3134  14
3135  24
3136  20
3137  17
3138  22
3139  18
3140  27
3141  18
3142  19
3143  26
3144  18
3145  19
3146  16
3147  17
3148  20
3149  14
3150  23
3151  29
3152  16
3153  21
3154  21
3155  18
3156  16
3157  25
3158  14
3159  21
3160  23
3161  19
3162  15
3163  18
3164  19
3165  23
3166  29
3167  15
3168  17
3169  22
3170  20
3171  12
3172  26
3173  20
3174  23
3175  30
3176  28
3177  16
3178  13
3179  11
3180  21
3181  23
3182  23
3183  27
3184  20
3185  17
3186  17
3187  21
3188  25
3189  20
3190  23
3191  25
3192  25
3193  24
3194  12
3195  26
3196  31
3197  18
3198  20
3199  14
3200  24
3201  22
3202  19
3203  28
3204  22
3205  26
3206  16
3207  22
3208  21
3209  16
3210  18
3211  18
3212  18
3213  22
3214  12
3215  24
3216  31
3217  24
3218  21
3219  16
3220  24
3221  22
3222  19
3223  25
3224  19
3225  25
3226  15
3227  20
3228  25
3229  29
3230  19
3231  19
3232  22
3233  16
3234  16
3235  17
3236  19
3237  24
3238  24
3239  21
3240  25
3241  25
3242  16
3243  20
3244  26
3245  21
3246  19
3247  32
3248  30
3249  14
3250  27
3251  31
3252  22
3253  25
3254  28
3255  21
3256  22
3257  18
3258  29
3259  22
3260  30
3261  37
3262  26
3263  26
3264  11
3265  31
3266  20
3267  25
3268  24
3269  29
3270  25
3271  25
3272  18
3273  29
3274  25
3275  22
3276  14
3277  44
3278  27
3279  28
3280  26
3281  24
3282  28
3283  30
3284  26
3285  14
3286  31
3287  24
3288  28
3289  27
3290  31
3291  28
3292  20
3293  35
3294  20
3295  28
3296  38
3297  22
3298  25
3299  34
3300  24
3301  26
3302  34
3303  25
3304  33
3305  25
3306  24
3307  34
3308  35
3309  25
3310  20
3311  35
3312  19
3313  33
3314  21
3315  39
3316  31
3317  36
3318  18
3319  29
3320  31
3321  25
3322  28
3323  39
3324  25
3325  38
3326  27
3327  21
3328  36
3329  20
3330  31
3331  17
3332  27
3333  43
3334  30
3335  24
3336  29
3337  38
3338  49
3339  31
3340  31
3341  33
3342  30
3343  25
3344  42
3345  38
3346  45
3347  37
3348  36
3349  24
3350  38
3351  32
3352  32
3353  35
3354  40
3355  42
3356  38
3357  36
3358  36
3359  43
3360  43
3361  50
3362  30
3363  34
3364  28
3365  25
3366  37
3367  35
3368  33
3369  46
3370  31
3371  38
3372  36
3373  34
3374  27
3375  35
3376  37
3377  52
3378  37
3379  40
3380  35
3381  40
3382  37
3383  49
3384  37
3385  36
3386  36
3387  52
3388  46
3389  46
3390  38
3391  36
3392  52
3393  53
3394  36
3395  46
3396  43
3397  51
3398  43
3399  46
3400  37
3401  49
3402  46
3403  47
3404  40
3405  53
3406  63
3407  49
3408  31
3409  60
3410  54
3411  39
3412  47
3413  40
3414  59
3415  59
3416  50
3417  57
3418  55
3419  61
3420  51
3421  43
3422  45
3423  57
3424  37
3425  49
3426  53
3427  47
3428  43
3429  64
3430  47
3431  49
3432  51
3433  47
3434  56
3435  64
3436  45
3437  42
3438  44
3439  52
3440  38
3441  51
3442  44
3443  42
3444  47
3445  42
3446  59
3447  48
3448  43
3449  35
3450  43
3451  52
3452  44
3453  45
3454  46
3455  42
3456  59
3457  40
3458  46
3459  50
3460  53
3461  58
3462  43
3463  57
3464  54
3465  56
3466  44
3467  49
3468  60
3469  41
3470  43
3471  47
3472  61
3473  67
3474  56
3475  60
3476  57
3477  69
3478  58
3479  42
3480  45
3481  59
3482  67
3483  53
3484  47
3485  56
3486  58
3487  42
3488  47
3489  60
3490  56
3491  56
3492  52
3493  47
3494  57
3495  47
3496  39
3497  61
3498  49
3499  51
3500  61
3501  54
3502  55
3503  49
3504  37
3505  52
3506  37
3507  53
3508  53
3509  34
3510  45
3511  49
3512  52
3513  38
3514  55
3515  48
3516  50
3517  43
3518  38
3519  37
3520  35
3521  32
3522  50
3523  52
3524  36
3525  39
3526  47
3527  56
3528  47
3529  37
3530  47
3531  45
3532  34
3533  43
3534  34
3535  39
3536  40
3537  48
3538  55
3539  36
3540  44
3541  40
3542  50
3543  57
3544  42
3545  46
3546  56
3547  41
3548  50
3549  60
3550  49
3551  55
3552  45
3553  59
3554  52
3555  44
3556  54
3557  63
3558  65
3559  57
3560  66
3561  62
3562  55
3563  71
3564  80
3565  56
3566  88
3567  88
3568  86
3569  72
3570  104
3571  96
3572  98
3573  117
3574  119
3575  114
3576  131
3577  117
3578  142
3579  161
3580  158
3581  149
3582  184
3583  224
3584  198
3585  216
3586  224
3587  243
3588  239
3589  281
3590  282
3591  301
3592  345
3593  337
3594  363
3595  349
3596  385
3597  419
3598  419
3599  394
3600  435
3601  477
3602  527
3603  535
3604  507
3605  547
3606  594
3607  573
3608  634
3609  629
3610  609
3611  697
3612  672
3613  698
3614  700
3615  734
3616  752
3617  760
3618  837
3619  824
3620  792
3621  782
3622  838
3623  811
3624  865
3625  789
3626  867
3627  838
3628  883
3629  858
3630  945
3631  908
3632  904
3633  876
3634  956
3635  962
3636  939
3637  907
3638  910
3639  979
3640  831
3641  854
3642  863
3643  855
3644  863
3645  817
3646  847
3647  831
3648  826
3649  843
3650  740
3651  788
3652  744
3653  693
3654  695
3655  663
3656  659
3657  639
3658  625
3659  568
3660  568
3661  562
3662  532
3663  507
3664  499
3665  472
3666  474
3667  445
3668  407
3669  372
3670  378
3671  351
3672  343
3673  313
3674  321
3675  312
3676  282
3677  275
3678  284
3679  242
3680  252
3681  222
3682  208
3683  181
3684  192
3685  200
3686  166
3687  158
3688  150
3689  156
3690  114
3691  122
3692  111
3693  123
3694  116
3695  105
3696  94
3697  84
3698  88
3699  87
3700  99
3701  84
3702  88
3703  94
3704  76
3705  93
3706  72
3707  90
3708  103
3709  116
3710  104
3711  120
3712  151
3713  152
3714  192
3715  220
3716  253
3717  313
3718  389
3719  444
3720  539
3721  653
3722  773
3723  916
3724  1042
3725  1218
3726  1429
3727  1628
3728  1871
3729  2064
3730  2366
3731  2562
3732  2815
3733  3005
3734  3351
3735  3547
3736  3767
3737  3891
3738  3922
3739  4147
3740  4314
3741  4340
3742  4407
3743  4293
3744  4154
3745  4060
3746  4058
3747  3941
3748  3745
3749  3623
3750  3447
3751  3117
3752  2915
3753  2726
3754  2664
3755  2395
3756  2202
3757  2033
3758  1850
3759  1675
3760  1568
3761  1423
3762  1362
3763  1150
3764  1050
3765  1047
3766  945
3767  899
3768  800
3769  720
3770  692
3771  648
3772  547
3773  584
3774  494
3775  437
3776  413
3777  358
3778  366
3779  360
3780  347
3781  295
3782  274
3783  223
3784  230
3785  225
3786  204
3787  175
3788  164
3789  158
3790  148
3791  138
3792  108
3793  115
3794  92
3795  88
3796  97
3797  70
3798  60
3799  81
3800  60
3801  55
3802  51
3803  46
3804  44
3805  43
3806  50
3807  48
3808  22
3809  40
3810  32
3811  21
3812  20
3813  24
3814  34
3815  24
3816  29
3817  20
3818  22
3819  19
3820  23
3821  19
3822  16
3823  22
3824  13
3825  17
3826  17
3827  18
3828  20
3829  17
3830  12
3831  28
3832  15
3833  19
3834  24
3835  28
3836  17
3837  16
3838  25
3839  16
3840  0
3841  0
3842  0
3843  0
3844  0
3845  0
3846  0
3847  0
3848  0
3849  0
3850  0
3851  0
3852  0
3853  0
3854  0
3855  0
3856  0
3857  0
3858  0
3859  0
3860  0
3861  0
3862  0
3863  0
3864  0
3865  0
3866  0
3867  0
3868  0
3869  0
3870  0
3871  0
3872  0
3873  0
3874  0
3875  0
3876  0
3877  0
3878  0
3879  0
3880  0
3881  0
3882  0
3883  0
3884  0
3885  0
3886  0
3887  0
3888  0
3889  0
3890  0
3891  0
3892  0
3893  0
3894  0
3895  0
3896  0
3897  0
3898  0
3899  0
3900  0
3901  0
3902  0
3903  0
3904  0
3905  0
3906  0
3907  0
3908  0
3909  0
3910  0
3911  0
3912  0
3913  0
3914  0
3915  0
3916  0
3917  0
3918  0
3919  0
3920  0
3921  0
3922  0
3923  0
3924  0
3925  0
3926  0
3927  0
3928  0
3929  0
3930  0
3931  0
3932  0
3933  0
3934  0
3935  0
3936  0
3937  0
3938  0
3939  0
3940  0
3941  0
3942  0
3943  0
3944  0
3945  0
3946  0
3947  0
3948  0
3949  0
3950  0
3951  0
3952  0
3953  0
3954  0
3955  0
3956  0
3957  0
3958  0
3959  0
3960  0
3961  0
3962  0
3963  0
3964  0
3965  0
3966  0
3967  0
3968  0
3969  0
3970  0
3971  0
3972  0
3973  0
3974  0
3975  0
3976  0
3977  0
3978  0
3979  0
3980  0
3981  0
3982  0
3983  0
3984  0
3985  0
3986  0
3987  0
3988  0
3989  0
3990  0
3991  0
3992  0
3993  0
3994  0
3995  0
3996  0
3997  0
3998  0
3999  0
4000  0
4001  0
4002  0
4003  0
4004  0
4005  0
4006  0
4007  0
4008  0
4009  0
4010  0
4011  0
4012  0
4013  0
4014  0
4015  0
4016  0
4017  0
4018  0
4019  0
4020  0
4021  0
4022  0
4023  0
4024  0
4025  0
4026  0
4027  0
4028  0
4029  0
4030  0
4031  0
4032  0
4033  0
4034  0
4035  0
4036  0
4037  0
4038  0
4039  0
4040  0
4041  0
4042  0
4043  0
4044  0
4045  0
4046  0
4047  0
4048  0
4049  0
4050  0
4051  0
4052  0
4053  0
4054  0
4055  0
4056  0
4057  0
4058  0
4059  0
4060  0
4061  0
4062  0
4063  0
4064  0
4065  0
4066  0
4067  0
4068  0
4069  0
4070  0
4071  0
4072  0
4073  0
4074  0
4075  0
4076  0
4077  0
4078  0
4079  0
4080  0
4081  0
4082  0
4083  0
4084  0
4085  0
4086  0
4087  0
4088  0
4089  0
4090  0
4091  0
4092  0
4093  0
4094  0
4095  0
