0  0
1  0
2  0
3  0
4  0
5  0
6  0
7  0
8  0
9  0
10  0
11  0
12  0
13  0
14  0
15  0
16  0
17  0
18  0
19  0
20  0
21  0
22  0
23  0
24  0
25  0
26  0
27  0
28  0
29  0
30  0
31  0
32  0
33  0
34  0
35  0
36  0
37  0
38  0
39  0
40  0
41  0
42  0
43  0
44  0
45  0
46  0
47  0
48  0
49  0
50  0
51  0
52  0
53  0
54  0
55  0
56  0
57  0
58  0
59  0
60  0
61  0
62  0
63  0
64  0
65  0
66  0
67  0
68  0
69  0
70  0
71  0
72  0
73  0
74  0
75  0
76  0
77  0
78  0
79  0
80  0
81  0
82  0
83  0
84  0
85  0
86  0
87  0
88  0
89  0
90  0
91  0
92  0
93  0
94  0
95  0
96  0
97  0
98  0
99  0
100  0
101  0
102  0
103  0
104  0
105  0
106  0
107  0
108  0
109  0
110  0
111  0
112  0
113  0
114  0
115  0
116  0
117  0
118  0
119  0
120  0
121  0
122  0
123  0
124  0
125  0
126  0
127  0
128  0
129  0
130  0
131  0
132  0
133  0
134  0
135  0
136  0
137  0
138  0
139  0
140  0
141  0
142  0
143  0
144  0
145  0
146  0
147  0
148  0
149  0
150  0
151  0
152  0
153  0
154  0
155  0
156  0
157  0
158  0
159  0
160  0
161  0
162  0
163  0
164  0
165  0
166  0
167  0
168  0
169  0
170  0
171  0
172  0
173  0
174  0
175  0
176  0
177  0
178  0
179  0
180  0
181  0
182  0
183  0
184  0
185  0
186  0
187  0
188  0
189  0
190  0
191  0
192  0
193  0
194  0
195  0
196  0
197  0
198  0
199  0
200  0
201  0
202  0
203  0
204  0
205  0
206  0
207  0
208  0
209  0
210  0
211  0
212  0
213  0
214  0
215  0
216  0
217  0
218  0
219  0
220  0
221  0
222  0
223  0
224  0
225  0
226  0
227  0
228  0
229  0
230  0
231  0
232  0
233  0
234  0
235  0
236  0
237  0
238  0
239  0
240  0
241  0
242  0
243  0
244  0
245  0
246  0
247  0
248  0
249  0
250  0
251  0
252  0
253  0
254  0
255  0
256  0
257  0
258  0
259  0
260  0
261  0
262  0
263  0
264  0
265  0
266  0
267  0
268  0
269  0
270  0
271  0
272  0
273  0
274  0
275  0
276  0
277  0
278  0
279  0
280  0
281  0
282  0
283  0
284  0
285  0
286  0
287  0
288  0
289  0
290  0
291  0
292  0
293  0
294  0
295  0
296  0
297  0
298  0
299  0
300  0
301  0
302  0
303  0
304  0
305  0
306  0
307  0
308  0
309  0
310  0
311  0
312  0
313  0
314  0
315  0
316  0
317  0
318  0
319  0
320  0
321  0
322  0
323  0
324  0
325  0
326  0
327  0
328  0
329  0
330  0
331  0
332  0
333  0
334  0
335  0
336  0
337  0
338  0
339  0
340  0
341  0
342  0
343  0
344  0
345  0
346  0
347  0
348  0
349  0
350  0
351  0
352  0
353  0
354  0
355  0
356  0
357  0
358  0
359  0
360  0
361  0
362  0
363  0
364  0
365  0
366  0
367  0
368  0
369  0
370  0
371  0
372  0
373  0
374  0
375  0
376  0
377  0
378  0
379  0
380  0
381  0
382  0
383  0
384  0
385  0
386  0
387  0
388  0
389  0
390  0
391  0
392  0
393  0
394  0
395  0
396  0
397  0
398  0
399  0
400  0
401  0
402  0
403  0
404  0
405  0
406  0
407  0
408  0
409  0
410  0
411  0
412  0
413  0
414  0
415  0
416  0
417  0
418  0
419  0
420  0
421  0
422  0
423  0
424  0
425  0
426  0
427  0
428  0
429  0
430  0
431  0
432  0
433  0
434  0
435  0
436  0
437  0
438  0
439  0
440  0
441  0
442  0
443  0
444  0
445  0
446  0
447  0
448  0
449  0
450  0
451  0
452  0
453  0
454  0
455  0
456  0
457  0
458  0
459  0
460  0
461  0
462  0
463  0
464  0
465  0
466  0
467  0
468  0
469  0
470  0
471  0
472  0
473  0
474  0
475  0
476  0
477  0
478  0
479  0
480  0
481  0
482  0
483  0
484  0
485  0
486  0
487  0
488  0
489  0
490  0
491  0
492  0
493  0
494  0
495  0
496  0
497  0
498  0
499  0
500  0
501  0
502  0
503  0
504  0
505  0
506  0
507  0
508  0
509  0
510  0
511  0
512  0
513  0
514  0
515  0
516  0
517  0
518  0
519  0
520  0
521  0
522  0
523  0
524  0
525  0
526  0
527  0
528  0
529  0
530  0
531  0
532  0
533  0
534  0
535  0
536  0
537  0
538  0
539  0
540  0
541  0
542  0
543  0
544  0
545  0
546  0
547  0
548  0
549  0
550  0
551  0
552  0
553  0
554  0
555  0
556  0
557  0
558  0
559  0
560  0
561  0
562  0
563  0
564  0
565  0
566  0
567  0
568  0
569  0
570  0
571  0
572  0
573  0
574  0
575  0
576  0
577  0
578  0
579  0
580  0
581  0
582  0
583  0
584  0
585  0
586  0
587  0
588  0
589  0
590  0
591  0
592  0
593  0
594  0
595  0
596  0
597  0
598  0
599  0
600  0
601  0
602  0
603  0
604  0
605  0
606  0
607  0
608  0
609  0
610  0
611  0
612  0
613  0
614  0
615  0
616  0
617  0
618  0
619  0
620  0
621  0
622  0
623  0
624  0
625  0
626  0
627  0
628  0
629  0
630  0
631  0
632  0
633  0
634  0
635  0
636  0
637  0
638  0
639  0
640  0
641  0
642  0
643  0
644  0
645  0
646  0
647  0
648  0
649  0
650  0
651  0
652  0
653  0
654  0
655  0
656  0
657  0
658  0
659  0
660  0
661  0
662  0
663  0
664  0
665  0
666  0
667  0
668  0
669  0
670  0
671  0
672  0
673  0
674  0
675  0
676  0
677  0
678  0
679  0
680  0
681  0
682  0
683  0
684  0
685  0
686  0
687  0
688  0
689  0
690  0
691  0
692  0
693  0
694  0
695  0
696  0
697  0
698  0
699  0
700  0
701  0
702  0
703  0
704  0
705  0
706  0
707  0
708  0
709  0
710  0
711  0
712  0
713  0
714  0
715  0
716  0
717  0
718  0
719  0
720  0
721  0
722  0
723  0
724  0
725  0
726  0
727  0
728  0
729  0
730  0
731  0
732  0
733  0
734  0
735  0
736  0
737  0
738  0
739  0
740  0
741  0
742  0
743  0
744  0
745  0
746  0
747  0
748  0
749  0
750  0
751  0
752  0
753  0
754  0
755  0
756  0
757  0
758  0
759  0
760  0
761  0
762  0
763  0
764  0
765  0
766  0
767  0
768  0
769  0
770  0
771  0
772  0
773  0
774  0
775  0
776  0
777  0
778  0
779  0
780  0
781  0
782  0
783  0
784  0
785  0
786  0
787  0
788  0
789  0
790  0
791  0
792  0
793  0
794  0
795  0
796  0
797  0
798  0
799  0
800  0
801  0
802  0
803  0
804  0
805  0
806  0
807  0
808  0
809  0
810  0
811  0
812  0
813  0
814  0
815  0
816  0
817  0
818  0
819  0
820  0
821  0
822  0
823  0
824  0
825  0
826  0
827  0
828  0
829  0
830  0
831  0
832  0
833  0
834  0
835  0
836  0
837  0
838  0
839  0
840  0
841  0
842  0
843  0
844  0
845  0
846  0
847  0
848  0
849  0
850  0
851  0
852  0
853  0
854  0
855  0
856  0
857  0
858  0
859  0
860  0
861  0
862  0
863  0
864  0
865  0
866  0
867  0
868  0
869  0
870  0
871  0
872  0
873  0
874  0
875  0
876  0
877  0
878  0
879  0
880  0
881  0
882  0
883  0
884  0
885  0
886  0
887  0
888  0
889  0
890  0
891  0
892  0
893  0
894  0
895  0
896  0
897  0
898  0
899  0
900  0
901  0
902  0
903  0
904  0
905  0
906  0
907  0
908  0
909  0
910  0
911  0
912  0
913  0
914  0
915  0
916  0
917  0
918  0
919  0
920  0
921  0
922  0
923  0
924  0
925  0
926  0
927  0
928  0
929  0
930  0
931  0
932  0
933  0
934  0
935  0
936  0
937  0
938  0
939  0
940  0
941  0
942  0
943  0
944  0
945  0
946  0
947  0
948  0
949  0
950  0
951  0
952  0
953  0
954  0
955  0
956  0
957  0
958  0
959  0
960  0
961  0
962  0
963  0
964  0
965  0
966  0
967  0
968  0
969  0
970  0
971  0
972  0
973  0
974  0
975  0
976  0
977  0
978  0
979  0
980  0
981  0
982  0
983  0
984  0
985  0
986  0
987  0
988  0
989  0
990  0
991  0
992  0
993  0
994  0
995  0
996  0
997  0
998  0
999  0
1000  0
1001  0
1002  0
1003  0
1004  0
1005  0
1006  0
1007  0
1008  0
1009  0
1010  0
1011  0
1012  0
1013  0
1014  0
1015  0
1016  0
1017  0
1018  0
1019  0
1020  0
1021  0
1022  0
1023  0
1024  0
1025  0
1026  0
1027  0
1028  0
1029  0
1030  0
1031  0
1032  0
1033  0
1034  0
1035  0
1036  0
1037  0
1038  0
1039  0
1040  0
1041  0
1042  0
1043  0
1044  0
1045  0
1046  0
1047  0
1048  0
1049  0
1050  0
1051  0
1052  0
1053  0
1054  0
1055  0
1056  0
1057  0
1058  0
1059  0
1060  0
1061  0
1062  0
1063  0
1064  0
1065  0
1066  0
1067  0
1068  0
1069  0
1070  0
1071  0
1072  0
1073  0
1074  0
1075  0
1076  0
1077  0
1078  0
1079  0
1080  0
1081  0
1082  0
1083  0
1084  0
1085  0
1086  0
1087  0
1088  0
1089  0
1090  0
1091  0
1092  0
1093  0
1094  0
1095  0
1096  0
1097  0
1098  0
1099  0
1100  0
1101  0
1102  0
1103  0
1104  0
1105  0
1106  0
1107  0
1108  0
1109  0
1110  0
1111  0
1112  0
1113  0
1114  0
1115  0
1116  0
1117  0
1118  0
1119  0
1120  0
1121  0
1122  0
1123  0
1124  0
1125  0
1126  0
1127  0
1128  0
1129  0
1130  0
1131  0
1132  0
1133  0
1134  0
1135  0
1136  0
1137  0
1138  0
1139  0
1140  0
1141  0
1142  0
1143  0
1144  0
1145  0
1146  0
1147  0
1148  0
1149  0
1150  0
1151  0
1152  0
1153  0
1154  0
1155  0
1156  0
1157  0
1158  0
1159  0
1160  0
1161  0
1162  0
1163  0
1164  0
1165  0
1166  0
1167  0
1168  0
1169  0
1170  0
1171  0
1172  0
1173  0
1174  0
1175  0
1176  0
1177  0
1178  0
1179  0
1180  0
1181  0
1182  0
1183  0
1184  0
1185  0
1186  0
1187  0
1188  0
1189  0
1190  0
1191  0
1192  0
1193  0
1194  0
1195  0
1196  0
1197  0
1198  0
1199  0
1200  0
1201  0
1202  0
1203  0
1204  0
1205  0
1206  0
1207  0
1208  0
1209  0
1210  0
1211  0
1212  0
1213  0
1214  0
1215  0
1216  0
1217  0
1218  0
1219  0
1220  0
1221  0
1222  0
1223  0
1224  0
1225  0
1226  0
1227  0
1228  0
1229  0
1230  0
1231  0
1232  0
1233  0
1234  0
1235  0
1236  0
1237  0
1238  0
1239  0
1240  0
1241  0
1242  0
1243  0
1244  0
1245  0
1246  0
1247  0
1248  0
1249  0
1250  0
1251  0
1252  0
1253  0
1254  0
1255  0
1256  0
1257  0
1258  0
1259  0
1260  0
1261  0
1262  0
1263  0
1264  0
1265  0
1266  0
1267  0
1268  0
1269  0
1270  0
1271  0
1272  0
1273  0
1274  0
1275  0
1276  0
1277  0
1278  0
1279  0
1280  0
1281  0
1282  0
1283  0
1284  0
1285  0
1286  0
1287  0
1288  0
1289  0
1290  0
1291  0
1292  0
1293  0
1294  0
1295  0
1296  0
1297  0
1298  0
1299  0
1300  0
1301  0
1302  0
1303  0
1304  0
1305  0
1306  0
1307  0
1308  0
1309  0
1310  0
1311  0
1312  0
1313  0
1314  0
1315  0
1316  0
1317  0
1318  0
1319  0
1320  0
1321  0
1322  0
1323  0
1324  0
1325  0
1326  0
1327  0
1328  0
1329  0
1330  0
1331  0
1332  0
1333  0
1334  0
1335  0
1336  0
1337  0
1338  0
1339  0
1340  0
1341  0
1342  0
1343  0
1344  0
1345  0
1346  0
1347  0
1348  0
1349  0
1350  0
1351  0
1352  0
1353  0
1354  0
1355  0
1356  0
1357  0
1358  0
1359  0
1360  0
1361  0
1362  0
1363  0
1364  0
1365  0
1366  0
1367  0
1368  0
1369  0
1370  0
1371  0
1372  0
1373  0
1374  0
1375  0
1376  0
1377  0
1378  0
1379  0
1380  0
1381  0
1382  0
1383  0
1384  0
1385  0
1386  0
1387  0
1388  0
1389  0
1390  0
1391  0
1392  0
1393  0
1394  0
1395  0
1396  0
1397  0
1398  0
1399  0
1400  0
1401  0
1402  0
1403  0
1404  0
1405  0
1406  0
1407  0
1408  0
1409  0
1410  0
1411  0
1412  0
1413  0
1414  0
1415  0
1416  0
1417  0
1418  0
1419  0
1420  0
1421  0
1422  0
1423  0
1424  0
1425  0
1426  0
1427  0
1428  0
1429  0
1430  0
1431  0
1432  0
1433  0
1434  0
1435  0
1436  0
1437  0
1438  0
1439  0
1440  0
1441  0
1442  0
1443  0
1444  0
1445  0
1446  0
1447  0
1448  0
1449  0
1450  0
1451  0
1452  0
1453  0
1454  0
1455  0
1456  0
1457  0
1458  0
1459  0
1460  0
1461  0
1462  0
1463  0
1464  0
1465  0
1466  0
1467  0
1468  0
1469  0
1470  0
1471  0
1472  0
1473  0
1474  0
1475  0
1476  0
1477  0
1478  0
1479  0
1480  0
1481  0
1482  0
1483  0
1484  0
1485  0
1486  0
1487  0
1488  0
1489  0
1490  0
1491  0
1492  0
1493  0
1494  0
1495  0
1496  0
1497  0
1498  0
1499  0
1500  0
1501  0
1502  0
1503  0
1504  0
1505  0
1506  0
1507  0
1508  0
1509  0
1510  0
1511  0
1512  0
1513  0
1514  0
1515  0
1516  0
1517  0
1518  0
1519  0
1520  0
1521  0
1522  0
1523  0
1524  0
1525  0
1526  0
1527  0
1528  0
1529  0
1530  0
1531  0
1532  0
1533  0
1534  0
1535  0
1536  0
1537  0
1538  0
1539  0
1540  0
1541  0
1542  0
1543  0
1544  0
1545  0
1546  0
1547  0
1548  0
1549  0
1550  0
1551  0
1552  0
1553  0
1554  0
1555  0
1556  0
1557  0
1558  0
1559  0
1560  0
1561  0
1562  0
1563  0
1564  0
1565  0
1566  0
1567  0
1568  0
1569  0
1570  0
1571  0
1572  0
1573  0
1574  0
1575  0
1576  0
1577  0
1578  0
1579  0
1580  0
1581  0
1582  0
1583  0
1584  0
1585  0
1586  0
1587  0
1588  0
1589  0
1590  0
1591  0
1592  0
1593  0
1594  0
1595  1
1596  1
1597  3
1598  16
1599  57
1600  159
1601  533
1602  1695
1603  4048
1604  7195
1605  9834
1606  11133
1607  11857
1608  12002
1609  12204
1610  12365
1611  12388
1612  12416
1613  12648
1614  12628
1615  12615
1616  12426
1617  12483
1618  12387
1619  12348
1620  12265
1621  12098
1622  11884
1623  11930
1624  11843
1625  11862
1626  11299
1627  11327
1628  10975
1629  10781
1630  10443
1631  10250
1632  9964
1633  10046
1634  9676
1635  9425
1636  8948
1637  8888
1638  8765
1639  8205
1640  7912
1641  7743
1642  7422
1643  7135
1644  6775
1645  6543
1646  6308
1647  6157
1648  5860
1649  5603
1650  5444
1651  5078
1652  4879
1653  4745
1654  4590
1655  4330
1656  4238
1657  3929
1658  3806
1659  3498
1660  3513
1661  3230
1662  3152
1663  2959
1664  2869
1665  2749
1666  2574
1667  2465
1668  2303
1669  2210
1670  2129
1671  1976
1672  1850
1673  1874
1674  1808
1675  1652
1676  1569
1677  1549
1678  1445
1679  1401
1680  1318
1681  1289
1682  1181
1683  1157
1684  1151
1685  1122
1686  1020
1687  978
1688  965
1689  903
1690  890
1691  829
1692  787
1693  743
1694  733
1695  726
1696  666
1697  639
1698  643
1699  571
1700  590
1701  588
1702  559
1703  483
1704  506
1705  509
1706  492
1707  452
1708  496
1709  428
1710  427
1711  405
1712  398
1713  377
1714  415
1715  382
1716  397
1717  376
1718  343
1719  353
1720  364
1721  349
1722  348
1723  339
1724  309
1725  286
1726  262
1727  269
1728  292
1729  244
1730  277
1731  229
1732  240
1733  280
1734  226
1735  230
1736  255
1737  233
1738  234
1739  249
1740  229
1741  230
1742  236
1743  222
1744  208
1745  217
1746  203
1747  189
1748  220
1749  198
1750  206
1751  166
1752  187
1753  195
1754  186
1755  196
1756  197
1757  179
1758  188
1759  185
1760  174
1761  167
1762  185
1763  213
1764  180
1765  177
1766  178
1767  183
1768  171
1769  190
1770  181
1771  199
1772  179
1773  180
1774  174
1775  189
1776  201
1777  196
1778  183
1779  179
1780  180
1781  210
1782  186
1783  200
1784  188
1785  235
1786  212
1787  210
1788  225
1789  233
1790  225
1791  196
1792  231
1793  238
1794  225
1795  224
1796  232
1797  224
1798  230
1799  221
1800  248
1801  246
1802  294
1803  271
1804  291
1805  253
1806  268
1807  262
1808  282
1809  302
1810  292
1811  306
1812  324
1813  318
1814  331
1815  349
1816  350
1817  343
1818  350
1819  392
1820  385
1821  397
1822  417
1823  386
1824  357
1825  423
1826  436
1827  452
1828  447
1829  460
1830  485
1831  453
1832  455
1833  480
1834  476
1835  508
1836  486
1837  493
1838  556
1839  529
1840  574
1841  554
1842  575
1843  597
1844  572
1845  662
1846  592
1847  601
1848  620
1849  620
1850  681
1851  669
1852  634
1853  687
1854  729
1855  726
1856  664
1857  724
1858  696
1859  729
1860  764
1861  782
1862  765
1863  758
1864  794
1865  791
1866  806
1867  820
1868  828
1869  806
1870  833
1871  817
1872  851
1873  828
1874  854
1875  861
1876  848
1877  851
1878  880
1879  880
1880  873
1881  884
1882  904
1883  889
1884  892
1885  912
1886  926
1887  926
1888  928
1889  914
1890  1021
1891  970
1892  913
1893  967
1894  1000
1895  984
1896  1057
1897  952
1898  970
1899  1068
1900  991
1901  1025
1902  1030
1903  1036
1904  1072
1905  1029
1906  1038
1907  1043
1908  1018
1909  1044
1910  1021
1911  1057
1912  1128
1913  1071
1914  1009
1915  1043
1916  1076
1917  1003
1918  1049
1919  1076
1920  1056
1921  1072
1922  1087
1923  1063
1924  1117
1925  1054
1926  1073
1927  1098
1928  1067
1929  1105
1930  1136
1931  1065
1932  1003
1933  1110
1934  1088
1935  1035
1936  1105
1937  1014
1938  1038
1939  1060
1940  1084
1941  1047
1942  1046
1943  1052
1944  1087
1945  1035
1946  1079
1947  1082
1948  1056
1949  1091
1950  1057
1951  1051
1952  1020
1953  1075
1954  1024
1955  1043
1956  1065
1957  1062
1958  1001
1959  960
1960  962
1961  1062
1962  1051
1963  974
1964  999
1965  1038
1966  1002
1967  960
1968  970
1969  1003
1970  1025
1971  967
1972  1007
1973  959
1974  951
1975  975
1976  975
1977  995
1978  954
1979  1006
1980  956
1981  927
1982  955
1983  990
1984  912
1985  933
1986  916
1987  919
1988  951
1989  879
1990  866
1991  849
1992  898
1993  863
1994  836
1995  906
1996  863
1997  866
1998  849
1999  875
2000  850
2001  837
2002  896
2003  804
2004  865
2005  799
2006  844
2007  844
2008  805
2009  853
2010  866
2011  756
2012  855
2013  771
2014  773
2015  840
2016  778
2017  739
2018  738
2019  774
2020  765
2021  691
2022  734
2023  758
2024  742
2025  716
2026  729
2027  722
2028  692
2029  718
2030  677
2031  697
2032  710
2033  675
2034  693
2035  690
2036  679
2037  674
2038  704
2039  698
2040  681
2041  658
2042  667
2043  650
2044  631
2045  688
2046  683
2047  594
2048  615
2049  651
2050  657
2051  609
2052  635
2053  610
2054  587
2055  589
2056  578
2057  553
2058  584
2059  594
2060  532
2061  552
2062  531
2063  509
2064  496
2065  493
2066  533
2067  508
2068  536
2069  465
2070  547
2071  544
2072  495
2073  505
2074  493
2075  497
2076  535
2077  505
2078  504
2079  514
2080  526
2081  537
2082  445
2083  471
2084  464
2085  466
2086  462
2087  441
2088  444
2089  452
2090  430
2091  443
2092  438
2093  431
2094  433
2095  412
2096  457
2097  471
2098  399
2099  420
2100  417
2101  353
2102  414
2103  422
2104  382
2105  388
2106  377
2107  384
2108  353
2109  364
2110  416
2111  381
2112  361
2113  356
2114  333
2115  368
2116  373
2117  361
2118  330
2119  362
2120  342
2121  321
2122  387
2123  324
2124  333
2125  348
2126  328
2127  308
2128  300
2129  323
2130  315
2131  311
2132  305
2133  300
2134  308
2135  280
2136  316
2137  302
2138  288
2139  281
2140  284
2141  299
2142  306
2143  267
2144  265
2145  270
2146  268
2147  255
2148  268
2149  269
2150  258
2151  267
2152  249
2153  260
2154  258
2155  262
2156  244
2157  226
2158  249
2159  269
2160  232
2161  238
2162  244
2163  278
2164  231
2165  246
2166  224
2167  240
2168  222
2169  211
2170  228
2171  214
2172  233
2173  219
2174  236
2175  201
2176  224
2177  215
2178  186
2179  211
2180  234
2181  174
2182  175
2183  226
2184  202
2185  201
2186  183
2187  187
2188  196
2189  202
2190  191
2191  178
2192  178
2193  187
2194  170
2195  179
2196  171
2197  151
2198  158
2199  169
2200  168
2201  191
2202  187
2203  176
2204  178
2205  173
2206  162
2207  161
2208  154
2209  139
2210  174
2211  168
2212  147
2213  140
2214  147
2215  167
2216  150
2217  143
2218  149
2219  149
2220  160
2221  129
2222  149
2223  141
2224  126
2225  140
2226  152
2227  145
2228  115
2229  134
2230  131
2231  128
2232  127
2233  115
2234  140
2235  109
2236  135
2237  132
2238  119
2239  122
2240  130
2241  133
2242  122
2243  124
2244  124
2245  136
2246  120
2247  101
2248  140
2249  96
2250  115
2251  118
2252  123
2253  105
2254  119
2255  86
2256  112
2257  87
2258  113
2259  100
2260  104
2261  124
2262  101
2263  98
2264  101
2265  109
2266  107
2267  95
2268  96
2269  94
2270  77
2271  108
2272  93
2273  99
2274  87
2275  82
2276  107
2277  94
2278  90
2279  97
2280  81
2281  104
2282  81
2283  86
2284  92
2285  63
2286  77
2287  84
2288  79
2289  79
2290  79
2291  74
2292  88
2293  79
2294  80
2295  84
2296  73
2297  69
2298  68
2299  62
2300  76
2301  87
2302  68
2303  77
2304  72
2305  68
2306  77
2307  58
2308  59
2309  88
2310  70
2311  90
2312  49
2313  59
2314  51
2315  68
2316  57
2317  53
2318  65
2319  73
2320  56
2321  70
2322  66
2323  68
2324  58
2325  62
2326  66
2327  48
2328  55
2329  57
2330  62
2331  60
2332  69
2333  65
2334  44
2335  59
2336  59
2337  60
2338  63
2339  54
2340  50
2341  65
2342  47
2343  57
2344  52
2345  48
2346  46
2347  53
2348  54
2349  62
2350  61
2351  48
2352  47
2353  52
2354  45
2355  48
2356  47
2357  57
2358  58
2359  59
2360  40
2361  51
2362  42
2363  44
2364  42
2365  37
2366  53
2367  37
2368  51
2369  35
2370  38
2371  62
2372  36
2373  28
2374  44
2375  41
2376  38
2377  41
2378  43
2379  52
2380  41
2381  36
2382  41
2383  37
2384  36
2385  46
2386  43
2387  27
2388  29
2389  40
2390  40
2391  31
2392  38
2393  34
2394  30
2395  28
2396  28
2397  42
2398  35
2399  36
2400  34
2401  30
2402  41
2403  43
2404  38
2405  36
2406  45
2407  30
2408  34
2409  29
2410  38
2411  34
2412  35
2413  27
2414  34
2415  25
2416  30
2417  25
2418  32
2419  38
2420  27
2421  38
2422  30
2423  31
2424  31
2425  29
2426  30
2427  48
2428  19
2429  22
2430  31
2431  26
2432  26
2433  23
2434  34
2435  25
2436  23
2437  31
2438  29
2439  32
2440  29
2441  35
2442  28
2443  26
2444  32
2445  24
2446  33
2447  18
2448  31
2449  24
2450  31
2451  15
2452  28
2453  30
2454  23
2455  25
2456  33
2457  17
2458  24
2459  20
2460  23
2461  28
2462  20
2463  28
2464  25
2465  24
2466  20
2467  25
2468  24
2469  18
2470  26
2471  23
2472  23
2473  15
2474  22
2475  19
2476  19
2477  32
2478  20
2479  15
2480  30
2481  23
2482  30
2483  18
2484  21
2485  19
2486  22
2487  18
2488  24
2489  16
2490  14
2491  19
2492  16
2493  26
2494  26
2495  22
2496  25
2497  22
2498  17
2499  16
2500  11
2501  25
2502  19
2503  14
2504  17
2505  16
2506  23
2507  18
2508  19
2509  20
2510  20
2511  17
2512  22
2513  26
2514  15
2515  19
2516  20
2517  11
2518  20
2519  17
2520  20
2521  19
2522  25
2523  23
2524  14
2525  23
2526  17
2527  13
2528  13
2529  19
2530  10
2531  24
2532  23
2533  14
2534  18
2535  9
2536  10
2537  16
2538  19
2539  9
2540  15
2541  13
2542  23
2543  12
2544  12
2545  14
2546  11
2547  14
2548  13
2549  11
2550  8
2551  13
2552  17
2553  10
2554  15
2555  12
2556  13
2557  8
2558  8
2559  16
2560  14
2561  10
2562  21
2563  9
2564  13
2565  10
2566  14
2567  13
2568  11
2569  11
2570  20
2571  11
2572  13
2573  14
2574  18
2575  10
2576  13
2577  16
2578  13
2579  12
2580  8
2581  11
2582  19
2583  21
2584  16
2585  11
2586  16
2587  11
2588  18
2589  10
2590  10
2591  17
2592  7
2593  13
2594  15
2595  6
2596  11
2597  10
2598  19
2599  13
2600  10
2601  11
2602  9
2603  16
2604  6
2605  12
2606  12
2607  9
2608  6
2609  10
2610  16
2611  17
2612  18
2613  19
2614  12
2615  12
2616  14
2617  12
2618  16
2619  10
2620  2
2621  5
2622  10
2623  8
2624  12
2625  15
2626  7
2627  8
2628  14
2629  9
2630  10
2631  10
2632  11
2633  5
2634  7
2635  14
2636  7
2637  14
2638  6
2639  4
2640  5
2641  9
2642  6
2643  7
2644  10
2645  5
2646  7
2647  14
2648  15
2649  11
2650  6
2651  7
2652  10
2653  9
2654  7
2655  7
2656  7
2657  12
2658  9
2659  17
2660  7
2661  8
2662  10
2663  5
2664  13
2665  9
2666  12
2667  8
2668  11
2669  8
2670  7
2671  8
2672  9
2673  7
2674  15
2675  8
2676  5
2677  11
2678  9
2679  10
2680  4
2681  4
2682  12
2683  4
2684  8
2685  5
2686  6
2687  9
2688  6
2689  13
2690  7
2691  5
2692  6
2693  9
2694  10
2695  6
2696  11
2697  11
2698  12
2699  5
2700  6
2701  11
2702  7
2703  6
2704  9
2705  6
2706  8
2707  7
2708  4
2709  8
2710  6
2711  5
2712  10
2713  7
2714  10
2715  8
2716  15
2717  4
2718  9
2719  8
2720  7
2721  11
2722  10
2723  6
2724  5
2725  2
2726  10
2727  6
2728  11
2729  8
2730  12
2731  5
2732  9
2733  5
2734  12
2735  6
2736  8
2737  8
2738  9
2739  6
2740  5
2741  5
2742  2
2743  6
2744  6
2745  7
2746  2
2747  5
2748  6
2749  11
2750  7
2751  6
2752  3
2753  0
2754  7
2755  7
2756  8
2757  5
2758  7
2759  9
2760  7
2761  4
2762  6
2763  0
2764  9
2765  7
2766  6
2767  12
2768  6
2769  4
2770  7
2771  9
2772  7
2773  7
2774  3
2775  5
2776  5
2777  6
2778  9
2779  7
2780  7
2781  4
2782  2
2783  7
2784  6
2785  6
2786  7
2787  9
2788  11
2789  3
2790  5
2791  4
2792  4
2793  7
2794  7
2795  7
2796  10
2797  3
2798  8
2799  4
2800  5
2801  9
2802  6
2803  11
2804  6
2805  5
2806  2
2807  8
2808  6
2809  9
2810  5
2811  5
2812  5
2813  5
2814  7
2815  6
2816  6
2817  2
2818  6
2819  3
2820  4
2821  5
2822  5
2823  6
2824  6
2825  7
2826  6
2827  7
2828  6
2829  6
2830  6
2831  4
2832  5
2833  4
2834  7
2835  8
2836  6
2837  5
2838  3
2839  5
2840  5
2841  4
2842  5
2843  12
2844  7
2845  5
2846  6
2847  6
2848  8
2849  1
2850  10
2851  8
2852  7
2853  4
2854  5
2855  5
2856  12
2857  4
2858  1
2859  3
2860  3
2861  4
2862  2
2863  4
2864  4
2865  6
2866  5
2867  3
2868  3
2869  2
2870  5
2871  8
2872  6
2873  2
2874  7
2875  7
2876  4
2877  5
2878  7
2879  6
2880  5
2881  2
2882  4
2883  11
2884  6
2885  5
2886  5
2887  5
2888  5
2889  2
2890  6
2891  6
2892  5
2893  8
2894  7
2895  5
2896  4
2897  3
2898  3
2899  3
2900  5
2901  5
2902  4
2903  4
2904  2
2905  3
2906  3
2907  9
2908  6
2909  8
2910  7
2911  6
2912  5
2913  3
2914  6
2915  4
2916  10
2917  6
2918  3
2919  5
2920  4
2921  8
2922  6
2923  3
2924  5
2925  4
2926  0
2927  8
2928  5
2929  3
2930  3
2931  7
2932  3
2933  3
2934  5
2935  5
2936  5
2937  3
2938  3
2939  1
2940  3
2941  6
2942  6
2943  2
2944  5
2945  5
2946  7
2947  7
2948  5
2949  4
2950  1
2951  7
2952  4
2953  4
2954  4
2955  2
2956  6
2957  2
2958  3
2959  4
2960  6
2961  0
2962  6
2963  5
2964  5
2965  8
2966  3
2967  5
2968  6
2969  8
2970  6
2971  2
2972  4
2973  6
2974  4
2975  4
2976  2
2977  8
2978  3
2979  2
2980  4
2981  3
2982  3
2983  3
2984  6
2985  4
2986  4
2987  2
2988  5
2989  3
2990  2
2991  5
2992  8
2993  1
2994  6
2995  4
2996  4
2997  5
2998  1
2999  4
3000  3
3001  5
3002  3
3003  1
3004  7
3005  3
3006  4
3007  4
3008  7
3009  1
3010  4
3011  2
3012  6
3013  4
3014  9
3015  4
3016  5
3017  7
3018  5
3019  4
3020  1
3021  0
3022  4
3023  4
3024  5
3025  3
3026  3
3027  3
3028  4
3029  5
3030  3
3031  4
3032  8
3033  5
3034  2
3035  1
3036  7
3037  1
3038  6
3039  6
3040  4
3041  4
3042  2
3043  4
3044  3
3045  5
3046  11
3047  6
3048  3
3049  6
3050  7
3051  5
3052  4
3053  5
3054  7
3055  5
3056  3
3057  1
3058  5
3059  0
3060  2
3061  7
3062  3
3063  2
3064  6
3065  8
3066  5
3067  4
3068  5
3069  5
3070  6
3071  7
3072  3
3073  4
3074  2
3075  5
3076  3
3077  3
3078  4
3079  3
3080  3
3081  2
3082  5
3083  8
3084  4
3085  5
3086  4
3087  5
3088  4
3089  5
3090  6
3091  3
3092  4
3093  6
3094  5
3095  4
3096  4
3097  5
3098  1
3099  6
3100  4
3101  2
3102  6
3103  4
3104  5
3105  3
3106  5
3107  5
3108  4
3109  1
3110  7
3111  5
3112  3
3113  2
3114  1
3115  6
3116  7
3117  7
3118  6
3119  3
3120  3
3121  2
3122  5
3123  4
3124  5
3125  3
3126  2
3127  0
3128  3
3129  6
3130  5
3131  2
3132  4
3133  1
3134  7
3135  12
3136  4
3137  2
3138  3
3139  7
3140  4
3141  6
3142  2
3143  4
3144  6
3145  2
3146  2
3147  4
3148  1
3149  7
3150  1
3151  3
3152  2
3153  4
3154  2
3155  3
3156  4
3157  4
3158  1
3159  2
3160  4
3161  3
3162  1
3163  3
3164  2
3165  2
3166  0
3167  5
3168  4
3169  4
3170  4
3171  0
3172  1
3173  3
3174  7
3175  3
3176  2
3177  1
3178  4
3179  1
3180  3
3181  3
3182  2
3183  3
3184  6
3185  3
3186  9
3187  3
3188  0
3189  2
3190  6
3191  4
3192  2
3193  3
3194  3
3195  3
3196  6
3197  2
3198  5
3199  3
3200  6
3201  3
3202  2
3203  4
3204  5
3205  4
3206  6
3207  4
3208  2
3209  7
3210  2
3211  1
3212  6
3213  2
3214  6
3215  5
3216  3
3217  5
3218  3
3219  2
3220  1
3221  2
3222  1
3223  5
3224  2
3225  1
3226  4
3227  3
3228  2
3229  1
3230  4
3231  2
3232  0
3233  4
3234  5
3235  3
3236  5
3237  4
3238  3
3239  1
3240  1
3241  1
3242  2
3243  3
3244  4
3245  3
3246  4
3247  3
3248  2
3249  2
3250  0
3251  4
3252  1
3253  2
3254  3
3255  3
3256  3
3257  3
3258  2
3259  4
3260  0
3261  3
3262  1
3263  2
3264  2
3265  5
3266  5
3267  1
3268  3
3269  5
3270  4
3271  1
3272  8
3273  2
3274  4
3275  2
3276  4
3277  3
3278  2
3279  2
3280  5
3281  2
3282  2
3283  4
3284  1
3285  6
3286  3
3287  5
3288  7
3289  3
3290  2
3291  4
3292  2
3293  2
3294  3
3295  3
3296  3
3297  4
3298  1
3299  4
3300  5
3301  2
3302  4
3303  2
3304  4
3305  2
3306  3
3307  3
3308  4
3309  2
3310  5
3311  4
3312  1
3313  6
3314  2
3315  0
3316  3
3317  0
3318  2
3319  2
3320  3
3321  1
3322  1
3323  8
3324  4
3325  0
3326  5
3327  2
3328  2
3329  1
3330  5
3331  6
3332  4
3333  2
3334  3
3335  1
3336  3
3337  3
3338  2
3339  4
3340  3
3341  3
3342  3
3343  4
3344  6
3345  1
3346  7
3347  2
3348  3
3349  2
3350  4
3351  2
3352  2
3353  0
3354  2
3355  5
3356  2
3357  3
3358  2
3359  4
3360  1
3361  8
3362  5
3363  3
3364  4
3365  4
3366  4
3367  4
3368  3
3369  1
3370  5
3371  4
3372  2
3373  3
3374  1
3375  3
3376  7
3377  1
3378  4
3379  2
3380  4
3381  3
3382  2
3383  4
3384  3
3385  4
3386  3
3387  5
3388  2
3389  3
3390  9
3391  4
3392  4
3393  3
3394  5
3395  2
3396  2
3397  1
3398  3
3399  2
3400  2
3401  4
3402  1
3403  5
3404  5
3405  1
3406  1
3407  3
3408  3
3409  2
3410  1
3411  1
3412  3
3413  2
3414  3
3415  1
3416  1
3417  3
3418  3
3419  3
3420  1
3421  3
3422  4
3423  2
3424  4
3425  4
3426  4
3427  2
3428  3
3429  1
3430  2
3431  3
3432  3
3433  4
3434  3
3435  4
3436  5
3437  4
3438  1
3439  6
3440  0
3441  7
3442  3
3443  3
3444  1
3445  4
3446  2
3447  5
3448  3
3449  0
3450  3
3451  4
3452  4
3453  7
3454  3
3455  4
3456  4
3457  3
3458  2
3459  3
3460  1
3461  1
3462  1
3463  4
3464  4
3465  2
3466  3
3467  2
3468  7
3469  5
3470  4
3471  2
3472  4
3473  1
3474  3
3475  1
3476  6
3477  1
3478  3
3479  2
3480  4
3481  6
3482  4
3483  2
3484  5
3485  1
3486  2
3487  3
3488  3
3489  3
3490  4
3491  5
3492  2
3493  6
3494  2
3495  4
3496  2
3497  3
3498  2
3499  0
3500  2
3501  6
3502  3
3503  2
3504  7
3505  2
3506  5
3507  2
3508  2
3509  4
3510  4
3511  0
3512  2
3513  4
3514  0
3515  5
3516  2
3517  2
3518  1
3519  4
3520  9
3521  2
3522  0
3523  4
3524  4
3525  3
3526  1
3527  4
3528  3
3529  1
3530  3
3531  0
3532  2
3533  0
3534  1
3535  2
3536  6
3537  2
3538  0
3539  3
3540  3
3541  2
3542  3
3543  2
3544  6
3545  4
3546  1
3547  2
3548  4
3549  3
3550  4
3551  0
3552  5
3553  1
3554  0
3555  2
3556  5
3557  3
3558  4
3559  2
3560  1
3561  2
3562  3
3563  2
3564  2
3565  4
3566  2
3567  1
3568  2
3569  5
3570  1
3571  2
3572  3
3573  5
3574  3
3575  2
3576  0
3577  2
3578  2
3579  4
3580  3
3581  4
3582  2
3583  4
3584  3
3585  2
3586  0
3587  6
3588  2
3589  2
3590  2
3591  6
3592  3
3593  4
3594  1
3595  2
3596  1
3597  2
3598  2
3599  2
3600  2
3601  3
3602  3
3603  1
3604  0
3605  3
3606  3
3607  1
3608  3
3609  2
3610  2
3611  1
3612  2
3613  0
3614  2
3615  3
3616  7
3617  0
3618  5
3619  4
3620  3
3621  7
3622  1
3623  7
3624  1
3625  2
3626  4
3627  4
3628  1
3629  4
3630  2
3631  3
3632  2
3633  2
3634  2
3635  3
3636  3
3637  3
3638  4
3639  4
3640  4
3641  4
3642  2
3643  1
3644  5
3645  1
3646  2
3647  1
3648  2
3649  1
3650  3
3651  0
3652  4
3653  0
3654  2
3655  2
3656  3
3657  1
3658  5
3659  2
3660  3
3661  6
3662  3
3663  2
3664  4
3665  3
3666  2
3667  3
3668  2
3669  2
3670  3
3671  1
3672  4
3673  4
3674  1
3675  2
3676  4
3677  2
3678  3
3679  3
3680  3
3681  2
3682  6
3683  5
3684  4
3685  2
3686  2
3687  3
3688  5
3689  2
3690  1
3691  1
3692  2
3693  3
3694  1
3695  3
3696  1
3697  1
3698  2
3699  1
3700  2
3701  0
3702  1
3703  5
3704  2
3705  2
3706  0
3707  3
3708  1
3709  5
3710  5
3711  3
3712  2
3713  0
3714  2
3715  2
3716  4
3717  5
3718  2
3719  5
3720  3
3721  2
3722  2
3723  4
3724  2
3725  1
3726  3
3727  4
3728  1
3729  4
3730  2
3731  3
3732  3
3733  1
3734  1
3735  3
3736  2
3737  5
3738  1
3739  1
3740  2
3741  4
3742  1
3743  1
3744  5
3745  1
3746  2
3747  5
3748  0
3749  0
3750  4
3751  3
3752  3
3753  2
3754  1
3755  0
3756  2
3757  1
3758  0
3759  3
3760  0
3761  3
3762  3
3763  2
3764  3
3765  3
3766  1
3767  0
3768  3
3769  5
3770  1
3771  3
3772  2
3773  0
3774  4
3775  2
3776  1
3777  3
3778  3
3779  2
3780  5
3781  1
3782  1
3783  3
3784  4
3785  0
3786  3
3787  3
3788  2
3789  2
3790  2
3791  0
3792  2
3793  1
3794  0
3795  2
3796  1
3797  4
3798  4
3799  2
3800  0
3801  0
3802  3
3803  2
3804  4
3805  2
3806  1
3807  2
3808  4
3809  3
3810  2
3811  2
3812  1
3813  2
3814  5
3815  4
3816  1
3817  2
3818  3
3819  5
3820  1
3821  2
3822  2
3823  2
3824  0
3825  5
3826  2
3827  4
3828  0
3829  3
3830  3
3831  1
3832  2
3833  2
3834  0
3835  1
3836  2
3837  3
3838  2
3839  2
3840  0
3841  0
3842  0
3843  0
3844  0
3845  0
3846  0
3847  0
3848  0
3849  0
3850  0
3851  0
3852  0
3853  0
3854  0
3855  0
3856  0
3857  0
3858  0
3859  0
3860  0
3861  0
3862  0
3863  0
3864  0
3865  0
3866  0
3867  0
3868  0
3869  0
3870  0
3871  0
3872  0
3873  0
3874  0
3875  0
3876  0
3877  0
3878  0
3879  0
3880  0
3881  0
3882  0
3883  0
3884  0
3885  0
3886  0
3887  0
3888  0
3889  0
3890  0
3891  0
3892  0
3893  0
3894  0
3895  0
3896  0
3897  0
3898  0
3899  0
3900  0
3901  0
3902  0
3903  0
3904  0
3905  0
3906  0
3907  0
3908  0
3909  0
3910  0
3911  0
3912  0
3913  0
3914  0
3915  0
3916  0
3917  0
3918  0
3919  0
3920  0
3921  0
3922  0
3923  0
3924  0
3925  0
3926  0
3927  0
3928  0
3929  0
3930  0
3931  0
3932  0
3933  0
3934  0
3935  0
3936  0
3937  0
3938  0
3939  0
3940  0
3941  0
3942  0
3943  0
3944  0
3945  0
3946  0
3947  0
3948  0
3949  0
3950  0
3951  0
3952  0
3953  0
3954  0
3955  0
3956  0
3957  0
3958  0
3959  0
3960  0
3961  0
3962  0
3963  0
3964  0
3965  0
3966  0
3967  0
3968  0
3969  0
3970  0
3971  0
3972  0
3973  0
3974  0
3975  0
3976  0
3977  0
3978  0
3979  0
3980  0
3981  0
3982  0
3983  0
3984  0
3985  0
3986  0
3987  0
3988  0
3989  0
3990  0
3991  0
3992  0
3993  0
3994  0
3995  0
3996  0
3997  0
3998  0
3999  0
4000  0
4001  0
4002  0
4003  0
4004  0
4005  0
4006  0
4007  0
4008  0
4009  0
4010  0
4011  0
4012  0
4013  0
4014  0
4015  0
4016  0
4017  0
4018  0
4019  0
4020  0
4021  0
4022  0
4023  0
4024  0
4025  0
4026  0
4027  0
4028  0
4029  0
4030  0
4031  0
4032  0
4033  0
4034  0
4035  0
4036  0
4037  0
4038  0
4039  0
4040  0
4041  0
4042  0
4043  0
4044  0
4045  0
4046  0
4047  0
4048  0
4049  0
4050  0
4051  0
4052  0
4053  0
4054  0
4055  0
4056  0
4057  0
4058  0
4059  0
4060  0
4061  0
4062  0
4063  0
4064  0
4065  0
4066  0
4067  0
4068  0
4069  0
4070  0
4071  0
4072  0
4073  0
4074  0
4075  0
4076  0
4077  0
4078  0
4079  0
4080  0
4081  0
4082  0
4083  0
4084  0
4085  0
4086  0
4087  0
4088  0
4089  0
4090  0
4091  0
4092  0
4093  0
4094  0
4095  0
