0  0
1  0
2  0
3  0
4  0
5  0
6  0
7  0
8  0
9  0
10  0
11  0
12  0
13  0
14  0
15  0
16  0
17  0
18  0
19  0
20  0
21  0
22  0
23  0
24  0
25  0
26  0
27  0
28  0
29  0
30  0
31  0
32  0
33  0
34  0
35  0
36  0
37  0
38  0
39  0
40  0
41  0
42  0
43  0
44  0
45  0
46  0
47  0
48  0
49  0
50  0
51  0
52  0
53  0
54  0
55  0
56  0
57  0
58  0
59  0
60  0
61  0
62  0
63  0
64  0
65  0
66  0
67  0
68  0
69  0
70  0
71  0
72  0
73  0
74  0
75  0
76  0
77  0
78  0
79  0
80  0
81  0
82  0
83  0
84  0
85  0
86  0
87  0
88  0
89  0
90  0
91  0
92  0
93  0
94  0
95  0
96  0
97  0
98  0
99  0
100  0
101  0
102  0
103  0
104  0
105  0
106  0
107  0
108  0
109  0
110  0
111  0
112  0
113  0
114  0
115  0
116  0
117  0
118  0
119  0
120  0
121  0
122  0
123  0
124  0
125  0
126  0
127  0
128  0
129  0
130  0
131  0
132  0
133  0
134  0
135  0
136  0
137  0
138  0
139  0
140  0
141  0
142  0
143  0
144  0
145  0
146  0
147  0
148  0
149  0
150  0
151  0
152  0
153  0
154  0
155  0
156  0
157  0
158  0
159  0
160  0
161  0
162  0
163  0
164  0
165  0
166  0
167  0
168  0
169  0
170  0
171  0
172  0
173  0
174  0
175  0
176  0
177  0
178  0
179  0
180  0
181  0
182  0
183  0
184  0
185  0
186  0
187  0
188  0
189  0
190  0
191  0
192  0
193  0
194  0
195  0
196  0
197  0
198  0
199  0
200  0
201  0
202  0
203  0
204  0
205  0
206  0
207  0
208  0
209  0
210  0
211  0
212  0
213  0
214  0
215  0
216  0
217  0
218  0
219  0
220  0
221  0
222  0
223  0
224  0
225  0
226  0
227  0
228  0
229  0
230  0
231  0
232  0
233  0
234  0
235  0
236  0
237  0
238  0
239  0
240  0
241  0
242  0
243  0
244  0
245  0
246  0
247  0
248  0
249  0
250  0
251  0
252  0
253  0
254  0
255  0
256  0
257  0
258  0
259  0
260  0
261  0
262  0
263  0
264  0
265  0
266  0
267  0
268  0
269  0
270  0
271  0
272  0
273  0
274  0
275  0
276  0
277  0
278  0
279  0
280  0
281  0
282  0
283  0
284  0
285  0
286  0
287  0
288  0
289  0
290  0
291  0
292  0
293  0
294  0
295  0
296  0
297  0
298  0
299  0
300  0
301  0
302  0
303  0
304  0
305  0
306  0
307  0
308  0
309  0
310  0
311  0
312  0
313  0
314  0
315  0
316  0
317  0
318  0
319  0
320  0
321  0
322  0
323  0
324  0
325  0
326  0
327  0
328  0
329  0
330  0
331  0
332  0
333  0
334  0
335  0
336  0
337  0
338  0
339  0
340  0
341  0
342  0
343  0
344  0
345  0
346  0
347  0
348  0
349  0
350  0
351  0
352  0
353  0
354  0
355  0
356  0
357  0
358  0
359  0
360  0
361  0
362  0
363  0
364  0
365  0
366  0
367  0
368  0
369  0
370  0
371  0
372  0
373  0
374  0
375  0
376  0
377  0
378  0
379  0
380  0
381  0
382  0
383  0
384  0
385  0
386  0
387  0
388  0
389  0
390  0
391  0
392  0
393  0
394  0
395  0
396  0
397  0
398  0
399  0
400  0
401  0
402  0
403  0
404  0
405  0
406  0
407  0
408  0
409  0
410  0
411  0
412  0
413  0
414  0
415  0
416  0
417  0
418  0
419  0
420  0
421  0
422  0
423  0
424  0
425  0
426  0
427  0
428  0
429  0
430  0
431  0
432  0
433  0
434  0
435  0
436  0
437  0
438  0
439  0
440  0
441  0
442  0
443  0
444  0
445  0
446  0
447  0
448  0
449  0
450  0
451  0
452  0
453  0
454  0
455  0
456  0
457  0
458  0
459  0
460  0
461  0
462  0
463  0
464  0
465  0
466  0
467  0
468  0
469  0
470  0
471  0
472  0
473  0
474  0
475  0
476  0
477  0
478  0
479  0
480  0
481  0
482  0
483  0
484  0
485  0
486  0
487  0
488  0
489  0
490  0
491  0
492  0
493  0
494  0
495  0
496  0
497  0
498  0
499  0
500  0
501  0
502  0
503  0
504  0
505  0
506  0
507  0
508  0
509  0
510  0
511  0
512  0
513  0
514  0
515  0
516  0
517  0
518  0
519  0
520  0
521  0
522  0
523  0
524  0
525  0
526  0
527  0
528  0
529  0
530  0
531  0
532  0
533  0
534  0
535  0
536  0
537  0
538  0
539  0
540  0
541  0
542  0
543  0
544  0
545  0
546  0
547  0
548  0
549  0
550  0
551  0
552  0
553  0
554  0
555  0
556  0
557  0
558  0
559  0
560  0
561  0
562  0
563  0
564  0
565  0
566  0
567  0
568  0
569  0
570  0
571  0
572  0
573  0
574  0
575  0
576  0
577  0
578  0
579  0
580  0
581  0
582  0
583  0
584  0
585  0
586  0
587  0
588  0
589  0
590  0
591  0
592  0
593  0
594  0
595  0
596  0
597  0
598  0
599  0
600  0
601  0
602  0
603  0
604  0
605  0
606  0
607  0
608  0
609  0
610  0
611  0
612  0
613  0
614  0
615  0
616  0
617  0
618  0
619  0
620  0
621  0
622  0
623  0
624  0
625  0
626  0
627  0
628  0
629  0
630  0
631  0
632  0
633  0
634  0
635  0
636  0
637  0
638  0
639  0
640  0
641  0
642  0
643  0
644  0
645  0
646  0
647  0
648  0
649  0
650  0
651  0
652  0
653  0
654  0
655  0
656  0
657  0
658  0
659  0
660  0
661  0
662  0
663  0
664  0
665  0
666  0
667  0
668  0
669  0
670  0
671  0
672  0
673  0
674  0
675  0
676  0
677  0
678  0
679  0
680  0
681  0
682  0
683  0
684  0
685  0
686  0
687  0
688  0
689  0
690  0
691  0
692  0
693  0
694  0
695  0
696  0
697  0
698  0
699  0
700  0
701  0
702  0
703  0
704  0
705  0
706  0
707  0
708  0
709  0
710  0
711  0
712  0
713  0
714  0
715  0
716  0
717  0
718  0
719  0
720  0
721  0
722  0
723  0
724  0
725  0
726  0
727  0
728  0
729  0
730  0
731  0
732  0
733  0
734  0
735  0
736  0
737  0
738  0
739  0
740  0
741  0
742  0
743  0
744  0
745  0
746  0
747  0
748  0
749  0
750  0
751  0
752  0
753  0
754  0
755  0
756  0
757  0
758  0
759  0
760  0
761  0
762  0
763  0
764  0
765  0
766  0
767  0
768  0
769  0
770  0
771  0
772  0
773  0
774  0
775  0
776  0
777  0
778  0
779  0
780  0
781  0
782  0
783  0
784  0
785  0
786  0
787  0
788  0
789  0
790  0
791  0
792  0
793  0
794  0
795  0
796  0
797  0
798  0
799  0
800  0
801  0
802  0
803  0
804  0
805  0
806  0
807  0
808  0
809  0
810  0
811  0
812  0
813  0
814  0
815  0
816  0
817  0
818  0
819  0
820  0
821  0
822  0
823  0
824  0
825  0
826  0
827  0
828  0
829  0
830  0
831  0
832  0
833  0
834  0
835  0
836  0
837  0
838  0
839  0
840  0
841  0
842  0
843  0
844  0
845  0
846  0
847  0
848  0
849  0
850  0
851  0
852  0
853  0
854  0
855  0
856  0
857  0
858  0
859  0
860  0
861  0
862  0
863  0
864  0
865  0
866  0
867  0
868  0
869  0
870  0
871  0
872  0
873  0
874  0
875  0
876  0
877  0
878  0
879  0
880  0
881  0
882  0
883  0
884  0
885  0
886  0
887  0
888  0
889  0
890  0
891  0
892  0
893  0
894  0
895  0
896  0
897  0
898  0
899  0
900  0
901  0
902  0
903  0
904  0
905  0
906  0
907  0
908  0
909  0
910  0
911  0
912  0
913  0
914  0
915  0
916  0
917  0
918  0
919  0
920  0
921  0
922  0
923  0
924  0
925  0
926  0
927  0
928  0
929  0
930  0
931  0
932  0
933  0
934  0
935  0
936  0
937  0
938  0
939  0
940  0
941  0
942  0
943  0
944  0
945  0
946  0
947  0
948  0
949  0
950  0
951  0
952  0
953  0
954  0
955  0
956  0
957  0
958  0
959  0
960  0
961  0
962  0
963  0
964  0
965  0
966  0
967  0
968  0
969  0
970  0
971  0
972  0
973  0
974  0
975  0
976  0
977  0
978  0
979  0
980  0
981  0
982  0
983  0
984  0
985  0
986  0
987  0
988  0
989  0
990  0
991  0
992  0
993  0
994  0
995  0
996  0
997  0
998  0
999  0
1000  0
1001  0
1002  0
1003  0
1004  0
1005  0
1006  0
1007  0
1008  0
1009  0
1010  0
1011  0
1012  0
1013  0
1014  0
1015  0
1016  0
1017  0
1018  0
1019  0
1020  0
1021  0
1022  0
1023  0
1024  0
1025  0
1026  0
1027  0
1028  0
1029  0
1030  0
1031  0
1032  0
1033  0
1034  0
1035  0
1036  0
1037  0
1038  0
1039  0
1040  0
1041  0
1042  0
1043  0
1044  0
1045  0
1046  0
1047  0
1048  0
1049  0
1050  0
1051  0
1052  0
1053  0
1054  0
1055  0
1056  0
1057  0
1058  0
1059  0
1060  0
1061  0
1062  0
1063  0
1064  0
1065  0
1066  0
1067  0
1068  0
1069  0
1070  0
1071  0
1072  0
1073  0
1074  0
1075  0
1076  0
1077  0
1078  0
1079  0
1080  0
1081  0
1082  0
1083  0
1084  0
1085  0
1086  0
1087  0
1088  0
1089  0
1090  0
1091  0
1092  0
1093  0
1094  0
1095  0
1096  0
1097  0
1098  0
1099  0
1100  0
1101  0
1102  0
1103  0
1104  0
1105  0
1106  0
1107  0
1108  0
1109  0
1110  0
1111  0
1112  0
1113  0
1114  0
1115  0
1116  0
1117  0
1118  0
1119  0
1120  0
1121  0
1122  0
1123  0
1124  0
1125  0
1126  0
1127  0
1128  0
1129  0
1130  0
1131  0
1132  0
1133  0
1134  0
1135  0
1136  0
1137  0
1138  0
1139  0
1140  0
1141  0
1142  0
1143  0
1144  0
1145  0
1146  0
1147  0
1148  0
1149  0
1150  0
1151  0
1152  0
1153  0
1154  0
1155  0
1156  0
1157  0
1158  0
1159  0
1160  0
1161  0
1162  0
1163  0
1164  0
1165  0
1166  0
1167  0
1168  0
1169  0
1170  0
1171  0
1172  0
1173  0
1174  0
1175  0
1176  0
1177  0
1178  0
1179  0
1180  0
1181  0
1182  0
1183  0
1184  0
1185  0
1186  0
1187  0
1188  0
1189  0
1190  0
1191  0
1192  0
1193  0
1194  0
1195  0
1196  0
1197  0
1198  0
1199  0
1200  0
1201  0
1202  0
1203  0
1204  0
1205  0
1206  0
1207  0
1208  0
1209  0
1210  0
1211  0
1212  0
1213  0
1214  0
1215  0
1216  0
1217  0
1218  0
1219  0
1220  0
1221  0
1222  0
1223  0
1224  0
1225  0
1226  0
1227  0
1228  0
1229  0
1230  0
1231  0
1232  0
1233  0
1234  0
1235  0
1236  0
1237  0
1238  0
1239  0
1240  0
1241  0
1242  0
1243  0
1244  0
1245  0
1246  0
1247  0
1248  0
1249  0
1250  0
1251  0
1252  0
1253  0
1254  0
1255  0
1256  0
1257  0
1258  0
1259  0
1260  0
1261  0
1262  0
1263  0
1264  0
1265  0
1266  0
1267  0
1268  0
1269  0
1270  0
1271  0
1272  0
1273  0
1274  0
1275  0
1276  0
1277  0
1278  0
1279  0
1280  0
1281  0
1282  0
1283  0
1284  0
1285  0
1286  0
1287  0
1288  0
1289  0
1290  0
1291  0
1292  0
1293  0
1294  0
1295  0
1296  0
1297  0
1298  0
1299  0
1300  0
1301  0
1302  0
1303  0
1304  0
1305  0
1306  0
1307  0
1308  0
1309  0
1310  0
1311  0
1312  0
1313  0
1314  0
1315  0
1316  0
1317  0
1318  0
1319  0
1320  0
1321  0
1322  0
1323  0
1324  0
1325  0
1326  0
1327  0
1328  0
1329  0
1330  0
1331  0
1332  0
1333  0
1334  0
1335  0
1336  0
1337  0
1338  0
1339  0
1340  0
1341  0
1342  0
1343  0
1344  0
1345  0
1346  0
1347  0
1348  0
1349  0
1350  0
1351  0
1352  0
1353  0
1354  0
1355  0
1356  0
1357  0
1358  0
1359  0
1360  0
1361  0
1362  0
1363  0
1364  0
1365  0
1366  0
1367  0
1368  0
1369  0
1370  0
1371  0
1372  0
1373  0
1374  0
1375  0
1376  0
1377  0
1378  0
1379  0
1380  0
1381  0
1382  0
1383  0
1384  0
1385  0
1386  0
1387  0
1388  0
1389  0
1390  0
1391  0
1392  0
1393  0
1394  0
1395  0
1396  0
1397  0
1398  0
1399  0
1400  0
1401  0
1402  0
1403  0
1404  0
1405  0
1406  0
1407  0
1408  0
1409  0
1410  0
1411  0
1412  0
1413  0
1414  0
1415  0
1416  0
1417  0
1418  0
1419  0
1420  0
1421  0
1422  0
1423  0
1424  0
1425  0
1426  0
1427  0
1428  0
1429  0
1430  0
1431  0
1432  0
1433  0
1434  0
1435  0
1436  0
1437  0
1438  0
1439  0
1440  0
1441  0
1442  0
1443  0
1444  0
1445  0
1446  0
1447  0
1448  0
1449  0
1450  0
1451  0
1452  0
1453  0
1454  0
1455  0
1456  0
1457  0
1458  0
1459  0
1460  0
1461  0
1462  0
1463  0
1464  0
1465  0
1466  0
1467  0
1468  0
1469  0
1470  0
1471  0
1472  0
1473  0
1474  0
1475  0
1476  0
1477  0
1478  0
1479  0
1480  0
1481  0
1482  0
1483  0
1484  0
1485  0
1486  0
1487  0
1488  0
1489  0
1490  0
1491  0
1492  0
1493  0
1494  0
1495  0
1496  0
1497  0
1498  0
1499  0
1500  0
1501  0
1502  0
1503  0
1504  0
1505  0
1506  0
1507  0
1508  0
1509  0
1510  0
1511  0
1512  0
1513  0
1514  0
1515  0
1516  0
1517  0
1518  0
1519  0
1520  0
1521  0
1522  0
1523  0
1524  0
1525  0
1526  0
1527  0
1528  0
1529  0
1530  0
1531  0
1532  0
1533  0
1534  0
1535  0
1536  0
1537  0
1538  0
1539  0
1540  0
1541  0
1542  0
1543  0
1544  0
1545  0
1546  0
1547  0
1548  0
1549  0
1550  0
1551  0
1552  0
1553  0
1554  0
1555  0
1556  0
1557  0
1558  0
1559  0
1560  0
1561  0
1562  0
1563  0
1564  0
1565  0
1566  0
1567  0
1568  0
1569  0
1570  0
1571  0
1572  0
1573  0
1574  0
1575  0
1576  0
1577  0
1578  0
1579  0
1580  0
1581  0
1582  0
1583  0
1584  0
1585  0
1586  0
1587  0
1588  0
1589  0
1590  0
1591  0
1592  0
1593  0
1594  0
1595  0
1596  0
1597  0
1598  0
1599  0
1600  0
1601  0
1602  0
1603  0
1604  0
1605  0
1606  0
1607  0
1608  0
1609  0
1610  0
1611  0
1612  0
1613  0
1614  0
1615  0
1616  0
1617  0
1618  0
1619  0
1620  0
1621  0
1622  0
1623  0
1624  0
1625  0
1626  0
1627  0
1628  0
1629  0
1630  0
1631  0
1632  0
1633  0
1634  0
1635  0
1636  0
1637  0
1638  0
1639  0
1640  0
1641  0
1642  0
1643  0
1644  0
1645  0
1646  0
1647  0
1648  0
1649  0
1650  0
1651  0
1652  0
1653  0
1654  0
1655  0
1656  0
1657  0
1658  0
1659  0
1660  0
1661  0
1662  0
1663  0
1664  0
1665  2
1666  61
1667  333
1668  664
1669  789
1670  804
1671  761
1672  736
1673  666
1674  687
1675  685
1676  604
1677  612
1678  620
1679  607
1680  539
1681  527
1682  498
1683  493
1684  428
1685  434
1686  393
1687  390
1688  407
1689  345
1690  344
1691  313
1692  326
1693  298
1694  250
1695  282
1696  257
1697  271
1698  248
1699  244
1700  216
1701  239
1702  204
1703  228
1704  183
1705  207
1706  178
1707  180
1708  184
1709  174
1710  145
1711  181
1712  140
1713  142
1714  147
1715  142
1716  144
1717  121
1718  121
1719  114
1720  120
1721  108
1722  106
1723  110
1724  84
1725  100
1726  102
1727  107
1728  84
1729  109
1730  85
1731  88
1732  90
1733  95
1734  89
1735  83
1736  84
1737  72
1738  64
1739  77
1740  67
1741  76
1742  72
1743  95
1744  54
1745  70
1746  60
1747  70
1748  73
1749  70
1750  49
1751  61
1752  57
1753  58
1754  56
1755  51
1756  64
1757  57
1758  62
1759  69
1760  67
1761  59
1762  62
1763  60
1764  53
1765  69
1766  47
1767  51
1768  56
1769  61
1770  54
1771  59
1772  57
1773  65
1774  59
1775  70
1776  70
1777  69
1778  68
1779  69
1780  70
1781  65
1782  69
1783  71
1784  79
1785  60
1786  83
1787  77
1788  70
1789  65
1790  81
1791  84
1792  74
1793  97
1794  88
1795  83
1796  103
1797  75
1798  89
1799  111
1800  120
1801  114
1802  94
1803  100
1804  131
1805  104
1806  117
1807  112
1808  118
1809  136
1810  122
1811  132
1812  122
1813  107
1814  148
1815  120
1816  133
1817  130
1818  144
1819  155
1820  162
1821  155
1822  161
1823  155
1824  162
1825  175
1826  177
1827  195
1828  160
1829  183
1830  205
1831  209
1832  203
1833  175
1834  230
1835  205
1836  227
1837  205
1838  228
1839  260
1840  236
1841  279
1842  273
1843  242
1844  294
1845  311
1846  313
1847  327
1848  339
1849  386
1850  365
1851  324
1852  308
1853  341
1854  389
1855  371
1856  412
1857  448
1858  438
1859  415
1860  444
1861  465
1862  444
1863  449
1864  477
1865  502
1866  491
1867  517
1868  544
1869  613
1870  570
1871  627
1872  625
1873  645
1874  701
1875  677
1876  685
1877  716
1878  745
1879  702
1880  800
1881  776
1882  832
1883  781
1884  901
1885  977
1886  895
1887  978
1888  1028
1889  1012
1890  993
1891  1086
1892  1140
1893  1110
1894  1124
1895  1226
1896  1166
1897  1259
1898  1282
1899  1331
1900  1357
1901  1332
1902  1379
1903  1516
1904  1477
1905  1478
1906  1549
1907  1573
1908  1615
1909  1712
1910  1709
1911  1716
1912  1823
1913  1821
1914  1808
1915  1875
1916  1928
1917  2018
1918  2022
1919  2156
1920  2072
1921  2168
1922  2212
1923  2267
1924  2253
1925  2299
1926  2376
1927  2396
1928  2480
1929  2476
1930  2543
1931  2621
1932  2535
1933  2601
1934  2746
1935  2844
1936  2761
1937  2855
1938  2928
1939  2937
1940  2990
1941  3143
1942  3012
1943  3129
1944  3277
1945  3223
1946  3225
1947  3358
1948  3277
1949  3412
1950  3439
1951  3521
1952  3588
1953  3567
1954  3727
1955  3645
1956  3768
1957  3827
1958  3774
1959  3899
1960  3789
1961  3870
1962  3939
1963  4066
1964  3999
1965  4080
1966  4209
1967  4164
1968  4154
1969  4211
1970  4201
1971  4274
1972  4250
1973  4353
1974  4398
1975  4279
1976  4437
1977  4490
1978  4569
1979  4476
1980  4517
1981  4572
1982  4551
1983  4597
1984  4774
1985  4756
1986  4648
1987  4746
1988  4659
1989  4670
1990  4801
1991  4926
1992  4968
1993  4800
1994  4853
1995  4982
1996  4938
1997  4944
1998  5017
1999  4919
2000  5084
2001  4994
2002  5116
2003  4946
2004  5235
2005  5156
2006  5205
2007  5176
2008  5209
2009  5208
2010  5140
2011  5194
2012  5086
2013  5180
2014  5118
2015  5078
2016  5239
2017  5126
2018  5212
2019  5119
2020  5172
2021  5131
2022  5003
2023  5247
2024  5123
2025  5105
2026  5233
2027  5066
2028  5212
2029  5185
2030  5054
2031  5164
2032  5155
2033  5266
2034  5236
2035  5079
2036  5077
2037  5129
2038  5088
2039  4964
2040  5040
2041  5097
2042  5052
2043  4918
2044  5084
2045  5107
2046  4905
2047  4976
2048  5051
2049  4947
2050  5097
2051  4985
2052  4944
2053  4832
2054  4705
2055  4873
2056  4816
2057  4823
2058  4938
2059  4648
2060  4719
2061  4822
2062  4770
2063  4741
2064  4752
2065  4677
2066  4794
2067  4643
2068  4556
2069  4694
2070  4584
2071  4467
2072  4675
2073  4419
2074  4483
2075  4499
2076  4431
2077  4409
2078  4482
2079  4417
2080  4290
2081  4332
2082  4356
2083  4304
2084  4380
2085  4372
2086  4283
2087  4247
2088  4201
2089  4230
2090  4070
2091  4215
2092  4009
2093  4162
2094  3985
2095  3929
2096  4054
2097  4060
2098  4063
2099  3854
2100  3986
2101  3831
2102  3908
2103  3805
2104  3891
2105  3920
2106  3820
2107  3857
2108  3691
2109  3697
2110  3749
2111  3624
2112  3581
2113  3618
2114  3606
2115  3723
2116  3473
2117  3435
2118  3439
2119  3431
2120  3469
2121  3386
2122  3409
2123  3342
2124  3369
2125  3273
2126  3182
2127  3279
2128  3279
2129  3200
2130  3221
2131  3104
2132  3150
2133  3126
2134  3156
2135  3137
2136  3099
2137  3043
2138  3025
2139  2931
2140  3004
2141  2941
2142  2903
2143  2939
2144  2927
2145  2822
2146  2846
2147  2800
2148  2881
2149  2763
2150  2726
2151  2766
2152  2766
2153  2659
2154  2788
2155  2602
2156  2728
2157  2509
2158  2585
2159  2581
2160  2550
2161  2627
2162  2709
2163  2467
2164  2423
2165  2475
2166  2529
2167  2426
2168  2358
2169  2410
2170  2370
2171  2349
2172  2341
2173  2262
2174  2324
2175  2214
2176  2204
2177  2209
2178  2241
2179  2206
2180  2191
2181  2170
2182  2080
2183  2161
2184  2147
2185  2056
2186  2038
2187  2050
2188  1982
2189  1980
2190  1980
2191  1956
2192  1904
2193  1883
2194  1825
2195  1889
2196  1858
2197  1859
2198  1925
2199  1753
2200  1757
2201  1748
2202  1752
2203  1864
2204  1740
2205  1783
2206  1744
2207  1720
2208  1672
2209  1692
2210  1685
2211  1636
2212  1607
2213  1620
2214  1711
2215  1609
2216  1585
2217  1601
2218  1530
2219  1594
2220  1510
2221  1471
2222  1495
2223  1516
2224  1441
2225  1489
2226  1425
2227  1423
2228  1434
2229  1421
2230  1418
2231  1362
2232  1396
2233  1298
2234  1326
2235  1378
2236  1305
2237  1228
2238  1252
2239  1295
2240  1244
2241  1233
2242  1269
2243  1263
2244  1196
2245  1213
2246  1300
2247  1172
2248  1205
2249  1156
2250  1098
2251  1193
2252  1205
2253  1157
2254  1080
2255  1107
2256  1043
2257  1072
2258  1029
2259  1080
2260  1052
2261  1061
2262  994
2263  1065
2264  1013
2265  1005
2266  1018
2267  954
2268  1056
2269  988
2270  930
2271  944
2272  899
2273  913
2274  872
2275  941
2276  899
2277  935
2278  889
2279  843
2280  898
2281  881
2282  879
2283  837
2284  847
2285  817
2286  805
2287  812
2288  792
2289  762
2290  771
2291  740
2292  758
2293  748
2294  735
2295  774
2296  751
2297  797
2298  748
2299  762
2300  722
2301  701
2302  670
2303  711
2304  729
2305  651
2306  673
2307  687
2308  684
2309  642
2310  676
2311  627
2312  655
2313  657
2314  657
2315  685
2316  607
2317  626
2318  590
2319  638
2320  591
2321  582
2322  568
2323  578
2324  576
2325  557
2326  518
2327  590
2328  564
2329  513
2330  537
2331  557
2332  541
2333  544
2334  502
2335  538
2336  526
2337  487
2338  534
2339  513
2340  508
2341  473
2342  488
2343  472
2344  471
2345  500
2346  431
2347  456
2348  438
2349  461
2350  476
2351  434
2352  466
2353  417
2354  437
2355  448
2356  403
2357  411
2358  431
2359  404
2360  398
2361  395
2362  369
2363  413
2364  403
2365  412
2366  374
2367  385
2368  399
2369  396
2370  390
2371  333
2372  387
2373  321
2374  380
2375  371
2376  372
2377  342
2378  341
2379  310
2380  325
2381  322
2382  336
2383  329
2384  323
2385  318
2386  318
2387  342
2388  302
2389  297
2390  286
2391  324
2392  291
2393  302
2394  294
2395  294
2396  303
2397  301
2398  261
2399  267
2400  303
2401  294
2402  260
2403  286
2404  245
2405  273
2406  276
2407  282
2408  265
2409  304
2410  238
2411  238
2412  262
2413  224
2414  242
2415  246
2416  242
2417  250
2418  272
2419  220
2420  251
2421  225
2422  240
2423  232
2424  230
2425  217
2426  226
2427  225
2428  196
2429  212
2430  218
2431  207
2432  200
2433  215
2434  202
2435  172
2436  181
2437  193
2438  180
2439  185
2440  203
2441  176
2442  190
2443  176
2444  196
2445  181
2446  163
2447  209
2448  209
2449  188
2450  184
2451  164
2452  188
2453  161
2454  180
2455  173
2456  162
2457  172
2458  162
2459  173
2460  150
2461  147
2462  146
2463  174
2464  152
2465  166
2466  160
2467  167
2468  147
2469  176
2470  152
2471  139
2472  155
2473  128
2474  140
2475  148
2476  145
2477  159
2478  131
2479  136
2480  155
2481  117
2482  126
2483  140
2484  136
2485  121
2486  118
2487  115
2488  115
2489  130
2490  132
2491  126
2492  110
2493  134
2494  119
2495  107
2496  118
2497  114
2498  118
2499  115
2500  104
2501  96
2502  114
2503  121
2504  112
2505  92
2506  111
2507  112
2508  116
2509  99
2510  115
2511  93
2512  96
2513  104
2514  88
2515  108
2516  97
2517  96
2518  95
2519  104
2520  102
2521  97
2522  100
2523  92
2524  101
2525  102
2526  89
2527  103
2528  83
2529  89
2530  91
2531  97
2532  82
2533  86
2534  90
2535  81
2536  81
2537  90
2538  91
2539  63
2540  79
2541  87
2542  68
2543  68
2544  71
2545  69
2546  62
2547  95
2548  70
2549  88
2550  79
2551  61
2552  69
2553  83
2554  76
2555  58
2556  75
2557  73
2558  73
2559  76
2560  64
2561  71
2562  56
2563  70
2564  70
2565  53
2566  62
2567  57
2568  70
2569  67
2570  70
2571  64
2572  60
2573  72
2574  57
2575  60
2576  71
2577  58
2578  63
2579  66
2580  62
2581  63
2582  58
2583  55
2584  59
2585  69
2586  48
2587  64
2588  58
2589  54
2590  54
2591  60
2592  48
2593  46
2594  52
2595  47
2596  50
2597  50
2598  51
2599  48
2600  52
2601  49
2602  52
2603  37
2604  62
2605  46
2606  46
2607  41
2608  45
2609  41
2610  39
2611  56
2612  56
2613  50
2614  52
2615  44
2616  51
2617  42
2618  43
2619  48
2620  42
2621  40
2622  41
2623  42
2624  45
2625  39
2626  42
2627  38
2628  43
2629  31
2630  26
2631  44
2632  38
2633  40
2634  52
2635  50
2636  39
2637  25
2638  31
2639  32
2640  36
2641  30
2642  41
2643  37
2644  28
2645  31
2646  29
2647  27
2648  31
2649  36
2650  27
2651  37
2652  42
2653  31
2654  31
2655  32
2656  33
2657  29
2658  26
2659  23
2660  40
2661  37
2662  23
2663  31
2664  27
2665  33
2666  23
2667  31
2668  39
2669  33
2670  33
2671  31
2672  28
2673  27
2674  27
2675  28
2676  30
2677  25
2678  32
2679  23
2680  21
2681  26
2682  25
2683  31
2684  21
2685  19
2686  31
2687  29
2688  24
2689  27
2690  16
2691  28
2692  31
2693  24
2694  23
2695  20
2696  15
2697  26
2698  19
2699  26
2700  25
2701  31
2702  29
2703  34
2704  26
2705  22
2706  25
2707  22
2708  23
2709  25
2710  18
2711  17
2712  28
2713  21
2714  28
2715  17
2716  15
2717  22
2718  25
2719  23
2720  17
2721  10
2722  16
2723  19
2724  19
2725  23
2726  25
2727  25
2728  19
2729  21
2730  23
2731  18
2732  9
2733  21
2734  9
2735  15
2736  23
2737  18
2738  16
2739  11
2740  12
2741  23
2742  15
2743  16
2744  12
2745  16
2746  18
2747  22
2748  16
2749  20
2750  12
2751  18
2752  14
2753  16
2754  19
2755  10
2756  13
2757  18
2758  19
2759  19
2760  16
2761  18
2762  19
2763  24
2764  23
2765  17
2766  10
2767  12
2768  22
2769  13
2770  14
2771  17
2772  11
2773  10
2774  22
2775  9
2776  8
2777  12
2778  12
2779  16
2780  12
2781  16
2782  11
2783  17
2784  14
2785  13
2786  12
2787  8
2788  14
2789  11
2790  13
2791  9
2792  10
2793  13
2794  15
2795  12
2796  20
2797  15
2798  6
2799  11
2800  13
2801  9
2802  12
2803  14
2804  15
2805  12
2806  8
2807  10
2808  13
2809  11
2810  14
2811  15
2812  15
2813  12
2814  9
2815  11
2816  12
2817  8
2818  12
2819  11
2820  12
2821  8
2822  15
2823  9
2824  7
2825  10
2826  7
2827  12
2828  15
2829  9
2830  6
2831  6
2832  11
2833  5
2834  9
2835  11
2836  10
2837  7
2838  12
2839  12
2840  8
2841  7
2842  7
2843  7
2844  6
2845  12
2846  14
2847  8
2848  19
2849  8
2850  11
2851  7
2852  6
2853  9
2854  7
2855  9
2856  8
2857  7
2858  8
2859  8
2860  8
2861  8
2862  5
2863  4
2864  9
2865  8
2866  8
2867  7
2868  14
2869  4
2870  4
2871  10
2872  11
2873  13
2874  6
2875  11
2876  6
2877  8
2878  3
2879  8
2880  5
2881  3
2882  6
2883  9
2884  2
2885  4
2886  6
2887  11
2888  4
2889  9
2890  6
2891  6
2892  3
2893  7
2894  4
2895  5
2896  14
2897  6
2898  7
2899  6
2900  8
2901  4
2902  1
2903  2
2904  5
2905  8
2906  3
2907  1
2908  7
2909  6
2910  9
2911  8
2912  6
2913  5
2914  6
2915  6
2916  4
2917  6
2918  9
2919  9
2920  5
2921  5
2922  6
2923  11
2924  8
2925  7
2926  5
2927  3
2928  4
2929  2
2930  2
2931  5
2932  11
2933  6
2934  1
2935  2
2936  5
2937  7
2938  2
2939  7
2940  6
2941  4
2942  5
2943  7
2944  11
2945  4
2946  2
2947  2
2948  7
2949  5
2950  5
2951  6
2952  3
2953  5
2954  5
2955  0
2956  2
2957  4
2958  5
2959  7
2960  2
2961  7
2962  7
2963  3
2964  5
2965  3
2966  4
2967  1
2968  3
2969  8
2970  4
2971  7
2972  5
2973  3
2974  7
2975  7
2976  3
2977  5
2978  8
2979  5
2980  3
2981  4
2982  3
2983  5
2984  3
2985  3
2986  5
2987  5
2988  5
2989  2
2990  6
2991  4
2992  3
2993  3
2994  5
2995  2
2996  2
2997  6
2998  2
2999  5
3000  6
3001  4
3002  4
3003  6
3004  3
3005  2
3006  4
3007  8
3008  8
3009  5
3010  4
3011  10
3012  5
3013  2
3014  3
3015  2
3016  3
3017  3
3018  6
3019  0
3020  2
3021  7
3022  2
3023  2
3024  2
3025  5
3026  0
3027  4
3028  1
3029  4
3030  3
3031  0
3032  1
3033  5
3034  4
3035  5
3036  6
3037  1
3038  2
3039  3
3040  4
3041  2
3042  1
3043  1
3044  6
3045  2
3046  4
3047  4
3048  3
3049  4
3050  4
3051  3
3052  4
3053  3
3054  3
3055  4
3056  0
3057  3
3058  3
3059  4
3060  5
3061  2
3062  3
3063  2
3064  5
3065  2
3066  2
3067  6
3068  3
3069  2
3070  3
3071  3
3072  1
3073  4
3074  2
3075  3
3076  4
3077  2
3078  4
3079  2
3080  3
3081  2
3082  2
3083  3
3084  1
3085  4
3086  2
3087  3
3088  4
3089  2
3090  4
3091  0
3092  1
3093  0
3094  4
3095  5
3096  2
3097  1
3098  1
3099  2
3100  2
3101  4
3102  3
3103  2
3104  2
3105  4
3106  4
3107  2
3108  3
3109  6
3110  2
3111  3
3112  8
3113  3
3114  4
3115  2
3116  1
3117  3
3118  3
3119  2
3120  3
3121  1
3122  0
3123  0
3124  0
3125  5
3126  7
3127  3
3128  2
3129  0
3130  4
3131  0
3132  3
3133  3
3134  2
3135  4
3136  4
3137  1
3138  1
3139  0
3140  0
3141  1
3142  4
3143  0
3144  2
3145  3
3146  0
3147  2
3148  3
3149  2
3150  1
3151  2
3152  2
3153  1
3154  4
3155  0
3156  3
3157  4
3158  1
3159  1
3160  4
3161  3
3162  4
3163  4
3164  4
3165  2
3166  2
3167  1
3168  3
3169  1
3170  3
3171  1
3172  2
3173  0
3174  3
3175  0
3176  0
3177  1
3178  3
3179  1
3180  1
3181  2
3182  3
3183  2
3184  2
3185  0
3186  1
3187  1
3188  3
3189  1
3190  3
3191  1
3192  2
3193  2
3194  1
3195  6
3196  1
3197  1
3198  0
3199  5
3200  1
3201  0
3202  1
3203  2
3204  2
3205  1
3206  4
3207  3
3208  2
3209  1
3210  2
3211  2
3212  1
3213  5
3214  3
3215  3
3216  4
3217  0
3218  2
3219  0
3220  2
3221  3
3222  0
3223  4
3224  3
3225  4
3226  0
3227  2
3228  1
3229  0
3230  2
3231  1
3232  1
3233  1
3234  0
3235  1
3236  2
3237  1
3238  1
3239  1
3240  1
3241  4
3242  0
3243  2
3244  2
3245  1
3246  0
3247  2
3248  1
3249  3
3250  1
3251  3
3252  0
3253  2
3254  3
3255  2
3256  1
3257  1
3258  0
3259  4
3260  0
3261  1
3262  1
3263  2
3264  1
3265  1
3266  0
3267  2
3268  0
3269  1
3270  1
3271  2
3272  3
3273  3
3274  2
3275  3
3276  2
3277  1
3278  1
3279  2
3280  2
3281  2
3282  2
3283  1
3284  2
3285  1
3286  0
3287  0
3288  0
3289  2
3290  0
3291  0
3292  1
3293  1
3294  1
3295  1
3296  0
3297  1
3298  2
3299  2
3300  0
3301  1
3302  0
3303  4
3304  3
3305  2
3306  1
3307  0
3308  0
3309  0
3310  2
3311  1
3312  0
3313  0
3314  1
3315  0
3316  1
3317  2
3318  1
3319  2
3320  2
3321  2
3322  3
3323  1
3324  0
3325  2
3326  1
3327  1
3328  1
3329  2
3330  4
3331  0
3332  1
3333  2
3334  2
3335  0
3336  0
3337  0
3338  2
3339  2
3340  0
3341  1
3342  1
3343  1
3344  0
3345  2
3346  0
3347  2
3348  4
3349  1
3350  0
3351  1
3352  4
3353  1
3354  3
3355  1
3356  1
3357  0
3358  0
3359  1
3360  0
3361  3
3362  1
3363  2
3364  3
3365  1
3366  3
3367  0
3368  2
3369  0
3370  1
3371  2
3372  0
3373  1
3374  2
3375  2
3376  1
3377  1
3378  0
3379  4
3380  0
3381  0
3382  1
3383  1
3384  1
3385  1
3386  3
3387  2
3388  2
3389  2
3390  2
3391  0
3392  0
3393  0
3394  0
3395  2
3396  1
3397  0
3398  3
3399  1
3400  2
3401  2
3402  0
3403  1
3404  1
3405  1
3406  1
3407  2
3408  0
3409  2
3410  0
3411  0
3412  2
3413  1
3414  1
3415  0
3416  2
3417  0
3418  0
3419  0
3420  0
3421  1
3422  0
3423  5
3424  1
3425  0
3426  1
3427  0
3428  1
3429  1
3430  2
3431  3
3432  0
3433  6
3434  0
3435  2
3436  0
3437  1
3438  1
3439  1
3440  1
3441  0
3442  2
3443  0
3444  3
3445  2
3446  1
3447  0
3448  0
3449  1
3450  2
3451  2
3452  1
3453  1
3454  0
3455  4
3456  2
3457  2
3458  1
3459  1
3460  1
3461  1
3462  1
3463  2
3464  1
3465  1
3466  0
3467  0
3468  0
3469  1
3470  0
3471  1
3472  0
3473  0
3474  0
3475  2
3476  1
3477  0
3478  1
3479  1
3480  0
3481  0
3482  2
3483  2
3484  0
3485  0
3486  1
3487  1
3488  1
3489  0
3490  0
3491  1
3492  1
3493  1
3494  1
3495  0
3496  0
3497  0
3498  0
3499  1
3500  1
3501  1
3502  0
3503  0
3504  1
3505  2
3506  1
3507  0
3508  3
3509  0
3510  1
3511  0
3512  2
3513  0
3514  1
3515  2
3516  0
3517  4
3518  1
3519  2
3520  0
3521  1
3522  2
3523  0
3524  0
3525  1
3526  2
3527  2
3528  2
3529  4
3530  1
3531  0
3532  4
3533  1
3534  2
3535  2
3536  2
3537  1
3538  2
3539  3
3540  1
3541  1
3542  1
3543  0
3544  1
3545  0
3546  0
3547  1
3548  0
3549  1
3550  0
3551  0
3552  1
3553  2
3554  0
3555  2
3556  0
3557  1
3558  0
3559  1
3560  0
3561  0
3562  0
3563  0
3564  0
3565  0
3566  0
3567  1
3568  2
3569  0
3570  0
3571  1
3572  0
3573  1
3574  0
3575  0
3576  0
3577  0
3578  0
3579  1
3580  0
3581  1
3582  1
3583  0
3584  0
3585  1
3586  1
3587  1
3588  0
3589  2
3590  0
3591  0
3592  1
3593  0
3594  1
3595  2
3596  1
3597  0
3598  1
3599  2
3600  3
3601  1
3602  1
3603  2
3604  1
3605  0
3606  1
3607  1
3608  0
3609  0
3610  1
3611  1
3612  0
3613  0
3614  2
3615  0
3616  0
3617  2
3618  0
3619  0
3620  1
3621  1
3622  0
3623  1
3624  2
3625  2
3626  1
3627  1
3628  0
3629  2
3630  1
3631  0
3632  0
3633  0
3634  1
3635  0
3636  2
3637  2
3638  0
3639  0
3640  0
3641  0
3642  0
3643  1
3644  0
3645  0
3646  0
3647  0
3648  2
3649  0
3650  1
3651  1
3652  2
3653  1
3654  0
3655  1
3656  1
3657  0
3658  1
3659  0
3660  0
3661  0
3662  0
3663  0
3664  0
3665  2
3666  2
3667  0
3668  0
3669  1
3670  1
3671  1
3672  0
3673  1
3674  0
3675  2
3676  0
3677  0
3678  0
3679  0
3680  1
3681  3
3682  3
3683  0
3684  1
3685  0
3686  0
3687  0
3688  1
3689  0
3690  0
3691  1
3692  2
3693  1
3694  1
3695  0
3696  1
3697  1
3698  0
3699  1
3700  2
3701  0
3702  0
3703  0
3704  1
3705  0
3706  0
3707  0
3708  2
3709  2
3710  1
3711  1
3712  1
3713  1
3714  0
3715  1
3716  1
3717  1
3718  0
3719  0
3720  2
3721  2
3722  2
3723  3
3724  2
3725  0
3726  1
3727  0
3728  1
3729  1
3730  0
3731  0
3732  1
3733  1
3734  2
3735  0
3736  0
3737  0
3738  0
3739  1
3740  0
3741  0
3742  1
3743  0
3744  1
3745  0
3746  2
3747  1
3748  1
3749  0
3750  0
3751  0
3752  0
3753  2
3754  0
3755  0
3756  1
3757  1
3758  3
3759  0
3760  0
3761  0
3762  0
3763  1
3764  0
3765  1
3766  0
3767  0
3768  0
3769  0
3770  1
3771  0
3772  0
3773  1
3774  1
3775  2
3776  2
3777  2
3778  0
3779  0
3780  1
3781  0
3782  1
3783  0
3784  2
3785  0
3786  0
3787  1
3788  1
3789  0
3790  1
3791  1
3792  1
3793  2
3794  2
3795  0
3796  1
3797  0
3798  0
3799  0
3800  0
3801  0
3802  0
3803  1
3804  0
3805  0
3806  0
3807  0
3808  2
3809  1
3810  0
3811  1
3812  3
3813  1
3814  0
3815  1
3816  0
3817  0
3818  1
3819  1
3820  1
3821  0
3822  0
3823  0
3824  0
3825  0
3826  2
3827  1
3828  2
3829  0
3830  1
3831  0
3832  0
3833  0
3834  0
3835  1
3836  0
3837  0
3838  0
3839  0
3840  0
3841  0
3842  0
3843  0
3844  0
3845  0
3846  0
3847  0
3848  0
3849  0
3850  0
3851  0
3852  0
3853  0
3854  0
3855  0
3856  0
3857  0
3858  0
3859  0
3860  0
3861  0
3862  0
3863  0
3864  0
3865  0
3866  0
3867  0
3868  0
3869  0
3870  0
3871  0
3872  0
3873  0
3874  0
3875  0
3876  0
3877  0
3878  0
3879  0
3880  0
3881  0
3882  0
3883  0
3884  0
3885  0
3886  0
3887  0
3888  0
3889  0
3890  0
3891  0
3892  0
3893  0
3894  0
3895  0
3896  0
3897  0
3898  0
3899  0
3900  0
3901  0
3902  0
3903  0
3904  0
3905  0
3906  0
3907  0
3908  0
3909  0
3910  0
3911  0
3912  0
3913  0
3914  0
3915  0
3916  0
3917  0
3918  0
3919  0
3920  0
3921  0
3922  0
3923  0
3924  0
3925  0
3926  0
3927  0
3928  0
3929  0
3930  0
3931  0
3932  0
3933  0
3934  0
3935  0
3936  0
3937  0
3938  0
3939  0
3940  0
3941  0
3942  0
3943  0
3944  0
3945  0
3946  0
3947  0
3948  0
3949  0
3950  0
3951  0
3952  0
3953  0
3954  0
3955  0
3956  0
3957  0
3958  0
3959  0
3960  0
3961  0
3962  0
3963  0
3964  0
3965  0
3966  0
3967  0
3968  0
3969  0
3970  0
3971  0
3972  0
3973  0
3974  0
3975  0
3976  0
3977  0
3978  0
3979  0
3980  0
3981  0
3982  0
3983  0
3984  0
3985  0
3986  0
3987  0
3988  0
3989  0
3990  0
3991  0
3992  0
3993  0
3994  0
3995  0
3996  0
3997  0
3998  0
3999  0
4000  0
4001  0
4002  0
4003  0
4004  0
4005  0
4006  0
4007  0
4008  0
4009  0
4010  0
4011  0
4012  0
4013  0
4014  0
4015  0
4016  0
4017  0
4018  0
4019  0
4020  0
4021  0
4022  0
4023  0
4024  0
4025  0
4026  0
4027  0
4028  0
4029  0
4030  0
4031  0
4032  0
4033  0
4034  0
4035  0
4036  0
4037  0
4038  0
4039  0
4040  0
4041  0
4042  0
4043  0
4044  0
4045  0
4046  0
4047  0
4048  0
4049  0
4050  0
4051  0
4052  0
4053  0
4054  0
4055  0
4056  0
4057  0
4058  0
4059  0
4060  0
4061  0
4062  0
4063  0
4064  0
4065  0
4066  0
4067  0
4068  0
4069  0
4070  0
4071  0
4072  0
4073  0
4074  0
4075  0
4076  0
4077  0
4078  0
4079  0
4080  0
4081  0
4082  0
4083  0
4084  0
4085  0
4086  0
4087  0
4088  0
4089  0
4090  0
4091  0
4092  0
4093  0
4094  0
4095  0
