0  0
1  0
2  0
3  0
4  0
5  0
6  0
7  0
8  0
9  0
10  0
11  0
12  0
13  0
14  0
15  0
16  0
17  0
18  0
19  0
20  0
21  0
22  0
23  0
24  0
25  0
26  0
27  0
28  0
29  0
30  0
31  0
32  0
33  0
34  0
35  0
36  0
37  0
38  0
39  0
40  0
41  0
42  0
43  0
44  0
45  0
46  0
47  0
48  0
49  0
50  0
51  0
52  0
53  0
54  0
55  0
56  0
57  0
58  0
59  0
60  0
61  0
62  0
63  0
64  0
65  0
66  0
67  0
68  0
69  0
70  0
71  0
72  0
73  0
74  0
75  0
76  0
77  0
78  0
79  0
80  0
81  0
82  0
83  0
84  0
85  0
86  0
87  0
88  0
89  0
90  0
91  0
92  0
93  0
94  0
95  0
96  0
97  0
98  0
99  0
100  0
101  0
102  0
103  0
104  0
105  0
106  0
107  0
108  0
109  0
110  0
111  0
112  0
113  0
114  0
115  0
116  0
117  0
118  0
119  0
120  0
121  0
122  0
123  0
124  0
125  0
126  0
127  0
128  0
129  0
130  0
131  0
132  0
133  0
134  0
135  0
136  0
137  0
138  0
139  0
140  0
141  0
142  0
143  0
144  0
145  0
146  0
147  0
148  0
149  0
150  0
151  0
152  0
153  0
154  0
155  0
156  0
157  0
158  0
159  0
160  0
161  0
162  0
163  0
164  0
165  0
166  0
167  0
168  0
169  0
170  0
171  0
172  0
173  0
174  0
175  0
176  0
177  0
178  0
179  0
180  0
181  0
182  0
183  0
184  0
185  0
186  0
187  0
188  0
189  0
190  0
191  0
192  0
193  0
194  0
195  0
196  0
197  0
198  0
199  0
200  0
201  0
202  0
203  0
204  0
205  0
206  0
207  0
208  0
209  0
210  0
211  0
212  0
213  0
214  0
215  0
216  0
217  0
218  0
219  0
220  0
221  0
222  0
223  0
224  0
225  0
226  0
227  0
228  0
229  0
230  0
231  0
232  0
233  0
234  0
235  0
236  0
237  0
238  0
239  0
240  0
241  0
242  0
243  0
244  0
245  0
246  0
247  0
248  0
249  0
250  0
251  0
252  0
253  0
254  0
255  0
256  0
257  0
258  0
259  0
260  0
261  0
262  0
263  0
264  0
265  0
266  0
267  0
268  0
269  0
270  0
271  0
272  0
273  0
274  0
275  0
276  0
277  0
278  0
279  0
280  0
281  0
282  0
283  0
284  0
285  0
286  0
287  0
288  0
289  0
290  0
291  0
292  0
293  0
294  0
295  0
296  0
297  0
298  0
299  0
300  0
301  0
302  0
303  0
304  0
305  0
306  0
307  0
308  0
309  0
310  0
311  0
312  0
313  0
314  0
315  0
316  0
317  0
318  0
319  0
320  0
321  0
322  0
323  0
324  0
325  0
326  0
327  0
328  0
329  0
330  0
331  0
332  0
333  0
334  0
335  0
336  0
337  0
338  0
339  0
340  0
341  0
342  0
343  0
344  0
345  0
346  0
347  0
348  0
349  0
350  0
351  0
352  0
353  0
354  0
355  0
356  0
357  0
358  0
359  0
360  0
361  0
362  0
363  0
364  0
365  0
366  0
367  0
368  0
369  0
370  0
371  0
372  0
373  0
374  0
375  0
376  0
377  0
378  0
379  0
380  0
381  0
382  0
383  0
384  0
385  0
386  0
387  0
388  0
389  0
390  0
391  0
392  0
393  0
394  0
395  0
396  0
397  0
398  0
399  0
400  0
401  0
402  0
403  0
404  0
405  0
406  0
407  0
408  0
409  0
410  0
411  0
412  0
413  0
414  0
415  0
416  0
417  0
418  0
419  0
420  0
421  0
422  0
423  0
424  0
425  0
426  0
427  0
428  0
429  0
430  0
431  0
432  0
433  0
434  0
435  0
436  0
437  0
438  0
439  0
440  0
441  0
442  0
443  0
444  0
445  0
446  0
447  0
448  0
449  0
450  0
451  0
452  0
453  0
454  0
455  0
456  0
457  0
458  0
459  0
460  0
461  0
462  0
463  0
464  0
465  0
466  0
467  0
468  0
469  0
470  0
471  0
472  0
473  0
474  0
475  0
476  0
477  0
478  0
479  0
480  0
481  0
482  0
483  0
484  0
485  0
486  0
487  0
488  0
489  0
490  0
491  0
492  0
493  0
494  0
495  0
496  0
497  0
498  0
499  0
500  0
501  0
502  0
503  0
504  0
505  0
506  0
507  0
508  0
509  0
510  0
511  0
512  0
513  0
514  0
515  0
516  0
517  0
518  0
519  0
520  0
521  0
522  0
523  0
524  0
525  0
526  0
527  0
528  0
529  0
530  0
531  0
532  0
533  0
534  0
535  0
536  0
537  0
538  0
539  0
540  0
541  0
542  0
543  0
544  0
545  0
546  0
547  0
548  0
549  0
550  0
551  0
552  0
553  0
554  0
555  0
556  0
557  0
558  0
559  0
560  0
561  0
562  0
563  0
564  0
565  0
566  0
567  0
568  0
569  0
570  0
571  0
572  0
573  0
574  0
575  0
576  0
577  0
578  0
579  0
580  0
581  0
582  0
583  0
584  0
585  0
586  0
587  0
588  0
589  0
590  0
591  0
592  0
593  0
594  0
595  0
596  0
597  0
598  0
599  0
600  0
601  0
602  0
603  0
604  0
605  0
606  0
607  0
608  0
609  0
610  0
611  0
612  0
613  0
614  0
615  0
616  0
617  0
618  0
619  0
620  0
621  0
622  0
623  0
624  0
625  0
626  0
627  0
628  0
629  0
630  0
631  0
632  0
633  0
634  0
635  0
636  0
637  0
638  0
639  0
640  0
641  0
642  0
643  0
644  0
645  0
646  0
647  0
648  0
649  0
650  0
651  0
652  0
653  0
654  0
655  0
656  0
657  0
658  0
659  0
660  0
661  0
662  0
663  0
664  0
665  0
666  0
667  0
668  0
669  0
670  0
671  0
672  0
673  0
674  0
675  0
676  0
677  0
678  0
679  0
680  0
681  0
682  0
683  0
684  0
685  0
686  0
687  0
688  0
689  0
690  0
691  0
692  0
693  0
694  0
695  0
696  0
697  0
698  0
699  0
700  0
701  0
702  0
703  0
704  0
705  0
706  0
707  0
708  0
709  0
710  0
711  0
712  0
713  0
714  0
715  0
716  0
717  0
718  0
719  0
720  0
721  0
722  0
723  0
724  0
725  0
726  0
727  0
728  0
729  0
730  0
731  0
732  0
733  0
734  0
735  0
736  0
737  0
738  0
739  0
740  0
741  0
742  0
743  0
744  0
745  0
746  0
747  0
748  0
749  0
750  0
751  0
752  0
753  0
754  0
755  0
756  0
757  0
758  0
759  0
760  0
761  0
762  0
763  0
764  0
765  0
766  0
767  0
768  0
769  0
770  0
771  0
772  0
773  0
774  0
775  0
776  0
777  0
778  0
779  0
780  0
781  0
782  0
783  0
784  0
785  0
786  0
787  0
788  0
789  0
790  0
791  0
792  0
793  0
794  0
795  0
796  0
797  0
798  0
799  0
800  0
801  0
802  0
803  0
804  0
805  0
806  0
807  0
808  0
809  0
810  0
811  0
812  0
813  0
814  0
815  0
816  0
817  0
818  0
819  0
820  0
821  0
822  0
823  0
824  0
825  0
826  0
827  0
828  0
829  0
830  0
831  0
832  0
833  0
834  0
835  0
836  0
837  0
838  0
839  0
840  0
841  0
842  0
843  0
844  0
845  0
846  0
847  0
848  0
849  0
850  0
851  0
852  0
853  0
854  0
855  0
856  0
857  0
858  0
859  0
860  0
861  0
862  0
863  0
864  0
865  0
866  0
867  0
868  0
869  0
870  0
871  0
872  0
873  0
874  0
875  0
876  0
877  0
878  0
879  0
880  0
881  0
882  0
883  0
884  0
885  0
886  0
887  0
888  0
889  0
890  0
891  0
892  0
893  0
894  0
895  0
896  0
897  0
898  0
899  0
900  0
901  0
902  0
903  0
904  0
905  0
906  0
907  0
908  0
909  0
910  0
911  0
912  0
913  0
914  0
915  0
916  0
917  0
918  0
919  0
920  0
921  0
922  0
923  0
924  0
925  0
926  0
927  0
928  0
929  0
930  0
931  0
932  0
933  0
934  0
935  0
936  0
937  0
938  0
939  0
940  0
941  0
942  0
943  0
944  0
945  0
946  0
947  0
948  0
949  0
950  0
951  0
952  0
953  0
954  0
955  0
956  0
957  0
958  0
959  0
960  0
961  0
962  0
963  0
964  0
965  0
966  0
967  0
968  0
969  0
970  0
971  0
972  0
973  0
974  0
975  0
976  0
977  0
978  0
979  0
980  0
981  0
982  0
983  0
984  0
985  0
986  0
987  0
988  0
989  0
990  0
991  0
992  0
993  0
994  0
995  0
996  0
997  0
998  0
999  0
1000  0
1001  0
1002  0
1003  0
1004  0
1005  0
1006  0
1007  0
1008  0
1009  0
1010  0
1011  0
1012  0
1013  0
1014  0
1015  0
1016  0
1017  0
1018  0
1019  0
1020  0
1021  0
1022  0
1023  0
1024  0
1025  0
1026  0
1027  0
1028  0
1029  0
1030  0
1031  0
1032  0
1033  0
1034  0
1035  0
1036  0
1037  0
1038  0
1039  0
1040  0
1041  0
1042  0
1043  0
1044  0
1045  0
1046  0
1047  0
1048  0
1049  0
1050  0
1051  0
1052  0
1053  0
1054  0
1055  0
1056  0
1057  0
1058  0
1059  0
1060  0
1061  0
1062  0
1063  0
1064  0
1065  0
1066  0
1067  0
1068  0
1069  0
1070  0
1071  0
1072  0
1073  0
1074  0
1075  0
1076  0
1077  0
1078  0
1079  0
1080  0
1081  0
1082  0
1083  0
1084  0
1085  0
1086  0
1087  0
1088  0
1089  0
1090  0
1091  0
1092  0
1093  0
1094  0
1095  0
1096  0
1097  0
1098  0
1099  0
1100  0
1101  0
1102  0
1103  0
1104  0
1105  0
1106  0
1107  0
1108  0
1109  0
1110  0
1111  0
1112  0
1113  0
1114  0
1115  0
1116  0
1117  0
1118  0
1119  0
1120  0
1121  0
1122  0
1123  0
1124  0
1125  0
1126  0
1127  0
1128  0
1129  0
1130  0
1131  0
1132  0
1133  0
1134  0
1135  0
1136  0
1137  0
1138  0
1139  0
1140  0
1141  0
1142  0
1143  0
1144  0
1145  0
1146  0
1147  0
1148  0
1149  0
1150  0
1151  0
1152  0
1153  0
1154  0
1155  0
1156  0
1157  0
1158  0
1159  0
1160  0
1161  0
1162  0
1163  0
1164  0
1165  0
1166  0
1167  0
1168  0
1169  0
1170  0
1171  0
1172  0
1173  0
1174  0
1175  0
1176  0
1177  0
1178  0
1179  0
1180  0
1181  0
1182  0
1183  0
1184  0
1185  0
1186  0
1187  0
1188  0
1189  0
1190  0
1191  0
1192  0
1193  0
1194  0
1195  0
1196  0
1197  0
1198  0
1199  0
1200  0
1201  0
1202  0
1203  0
1204  0
1205  0
1206  0
1207  0
1208  0
1209  0
1210  0
1211  0
1212  0
1213  0
1214  0
1215  0
1216  0
1217  0
1218  0
1219  0
1220  0
1221  0
1222  0
1223  0
1224  0
1225  0
1226  0
1227  0
1228  0
1229  0
1230  0
1231  0
1232  0
1233  0
1234  0
1235  0
1236  0
1237  0
1238  0
1239  0
1240  0
1241  0
1242  0
1243  0
1244  0
1245  0
1246  0
1247  0
1248  0
1249  0
1250  0
1251  0
1252  0
1253  0
1254  0
1255  0
1256  0
1257  0
1258  0
1259  0
1260  0
1261  0
1262  0
1263  0
1264  0
1265  0
1266  0
1267  0
1268  0
1269  0
1270  0
1271  0
1272  0
1273  0
1274  0
1275  0
1276  0
1277  0
1278  0
1279  0
1280  0
1281  0
1282  0
1283  0
1284  0
1285  0
1286  0
1287  0
1288  0
1289  0
1290  0
1291  0
1292  0
1293  0
1294  0
1295  0
1296  0
1297  0
1298  0
1299  0
1300  0
1301  0
1302  0
1303  0
1304  0
1305  0
1306  0
1307  0
1308  0
1309  0
1310  0
1311  0
1312  0
1313  0
1314  0
1315  0
1316  0
1317  0
1318  0
1319  0
1320  0
1321  0
1322  0
1323  0
1324  0
1325  0
1326  0
1327  0
1328  0
1329  0
1330  0
1331  0
1332  0
1333  0
1334  0
1335  0
1336  0
1337  0
1338  0
1339  0
1340  0
1341  0
1342  0
1343  0
1344  0
1345  0
1346  0
1347  0
1348  0
1349  0
1350  0
1351  0
1352  0
1353  0
1354  0
1355  0
1356  0
1357  0
1358  0
1359  0
1360  0
1361  0
1362  0
1363  0
1364  0
1365  0
1366  0
1367  0
1368  0
1369  0
1370  0
1371  0
1372  0
1373  0
1374  0
1375  0
1376  0
1377  0
1378  0
1379  0
1380  0
1381  0
1382  0
1383  0
1384  0
1385  0
1386  0
1387  0
1388  0
1389  0
1390  0
1391  0
1392  0
1393  0
1394  0
1395  0
1396  0
1397  0
1398  0
1399  0
1400  0
1401  0
1402  0
1403  0
1404  0
1405  0
1406  0
1407  0
1408  0
1409  0
1410  0
1411  0
1412  0
1413  0
1414  0
1415  0
1416  0
1417  0
1418  0
1419  0
1420  0
1421  0
1422  0
1423  0
1424  0
1425  0
1426  0
1427  0
1428  0
1429  0
1430  0
1431  0
1432  0
1433  0
1434  0
1435  0
1436  0
1437  0
1438  0
1439  0
1440  0
1441  0
1442  0
1443  0
1444  0
1445  0
1446  0
1447  0
1448  0
1449  0
1450  0
1451  0
1452  0
1453  0
1454  0
1455  0
1456  0
1457  0
1458  0
1459  0
1460  0
1461  0
1462  0
1463  0
1464  0
1465  0
1466  0
1467  0
1468  0
1469  0
1470  0
1471  0
1472  0
1473  0
1474  0
1475  0
1476  0
1477  0
1478  0
1479  0
1480  0
1481  0
1482  0
1483  0
1484  0
1485  0
1486  0
1487  0
1488  0
1489  0
1490  0
1491  0
1492  0
1493  0
1494  0
1495  0
1496  0
1497  0
1498  0
1499  0
1500  0
1501  0
1502  0
1503  0
1504  0
1505  0
1506  0
1507  0
1508  0
1509  0
1510  0
1511  0
1512  0
1513  0
1514  0
1515  0
1516  0
1517  0
1518  0
1519  0
1520  0
1521  0
1522  0
1523  0
1524  0
1525  0
1526  0
1527  0
1528  0
1529  0
1530  0
1531  0
1532  0
1533  0
1534  0
1535  0
1536  0
1537  0
1538  0
1539  0
1540  0
1541  0
1542  0
1543  0
1544  0
1545  0
1546  0
1547  0
1548  0
1549  0
1550  0
1551  0
1552  0
1553  0
1554  0
1555  0
1556  0
1557  0
1558  0
1559  0
1560  0
1561  0
1562  0
1563  0
1564  0
1565  0
1566  0
1567  0
1568  0
1569  0
1570  0
1571  0
1572  0
1573  0
1574  0
1575  0
1576  0
1577  0
1578  0
1579  0
1580  0
1581  0
1582  0
1583  0
1584  0
1585  0
1586  0
1587  0
1588  0
1589  0
1590  0
1591  0
1592  0
1593  0
1594  0
1595  0
1596  0
1597  0
1598  0
1599  0
1600  0
1601  0
1602  0
1603  0
1604  0
1605  0
1606  0
1607  0
1608  0
1609  0
1610  0
1611  0
1612  0
1613  0
1614  0
1615  0
1616  0
1617  0
1618  0
1619  0
1620  0
1621  0
1622  0
1623  0
1624  0
1625  0
1626  0
1627  0
1628  0
1629  0
1630  0
1631  0
1632  0
1633  0
1634  0
1635  0
1636  0
1637  0
1638  0
1639  0
1640  0
1641  0
1642  0
1643  0
1644  0
1645  0
1646  0
1647  0
1648  0
1649  0
1650  0
1651  0
1652  0
1653  0
1654  0
1655  0
1656  0
1657  0
1658  0
1659  0
1660  0
1661  0
1662  0
1663  0
1664  0
1665  4
1666  113
1667  594
1668  1134
1669  1540
1670  1462
1671  1469
1672  1357
1673  1367
1674  1234
1675  1244
1676  1194
1677  1175
1678  1074
1679  1127
1680  1024
1681  1051
1682  861
1683  984
1684  898
1685  851
1686  771
1687  757
1688  776
1689  754
1690  698
1691  687
1692  663
1693  624
1694  604
1695  561
1696  587
1697  541
1698  516
1699  495
1700  473
1701  440
1702  414
1703  428
1704  400
1705  382
1706  372
1707  369
1708  376
1709  347
1710  364
1711  328
1712  328
1713  324
1714  278
1715  285
1716  257
1717  250
1718  268
1719  262
1720  234
1721  227
1722  242
1723  245
1724  202
1725  216
1726  197
1727  210
1728  202
1729  220
1730  219
1731  170
1732  168
1733  168
1734  134
1735  192
1736  165
1737  164
1738  177
1739  143
1740  173
1741  142
1742  162
1743  173
1744  134
1745  147
1746  162
1747  127
1748  141
1749  146
1750  137
1751  132
1752  152
1753  158
1754  126
1755  150
1756  152
1757  153
1758  139
1759  164
1760  165
1761  163
1762  174
1763  158
1764  178
1765  175
1766  155
1767  182
1768  162
1769  169
1770  168
1771  189
1772  183
1773  192
1774  223
1775  214
1776  224
1777  208
1778  217
1779  248
1780  244
1781  245
1782  249
1783  249
1784  268
1785  260
1786  270
1787  285
1788  283
1789  296
1790  287
1791  293
1792  334
1793  327
1794  331
1795  370
1796  351
1797  403
1798  390
1799  411
1800  411
1801  455
1802  459
1803  491
1804  455
1805  495
1806  518
1807  515
1808  586
1809  542
1810  629
1811  601
1812  669
1813  577
1814  666
1815  714
1816  734
1817  758
1818  788
1819  817
1820  822
1821  879
1822  891
1823  947
1824  1002
1825  974
1826  1093
1827  1068
1828  1092
1829  1169
1830  1186
1831  1200
1832  1228
1833  1307
1834  1320
1835  1342
1836  1469
1837  1470
1838  1525
1839  1565
1840  1611
1841  1665
1842  1708
1843  1819
1844  1759
1845  1821
1846  1877
1847  1963
1848  1944
1849  2022
1850  2080
1851  2190
1852  2245
1853  2375
1854  2369
1855  2471
1856  2457
1857  2660
1858  2634
1859  2765
1860  2804
1861  2814
1862  2890
1863  2900
1864  3045
1865  3172
1866  3149
1867  3247
1868  3354
1869  3438
1870  3446
1871  3518
1872  3747
1873  3695
1874  3740
1875  3715
1876  3886
1877  3867
1878  4024
1879  4125
1880  4105
1881  4373
1882  4316
1883  4410
1884  4437
1885  4570
1886  4577
1887  4632
1888  4757
1889  4819
1890  4898
1891  4911
1892  5125
1893  5088
1894  5188
1895  5233
1896  5392
1897  5242
1898  5478
1899  5409
1900  5523
1901  5596
1902  5648
1903  5650
1904  5754
1905  5723
1906  5852
1907  5978
1908  5818
1909  5909
1910  6117
1911  6073
1912  6166
1913  6100
1914  6208
1915  6105
1916  6317
1917  6264
1918  6233
1919  6220
1920  6377
1921  6478
1922  6389
1923  6415
1924  6432
1925  6493
1926  6388
1927  6448
1928  6539
1929  6538
1930  6769
1931  6562
1932  6448
1933  6693
1934  6624
1935  6694
1936  6493
1937  6545
1938  6633
1939  6740
1940  6656
1941  6623
1942  6652
1943  6705
1944  6778
1945  6646
1946  6676
1947  6594
1948  6822
1949  6652
1950  6657
1951  6575
1952  6621
1953  6594
1954  6581
1955  6484
1956  6594
1957  6729
1958  6490
1959  6551
1960  6512
1961  6465
1962  6433
1963  6464
1964  6328
1965  6275
1966  6449
1967  6341
1968  6199
1969  6239
1970  6314
1971  6197
1972  6048
1973  6162
1974  6136
1975  6081
1976  5973
1977  6056
1978  5885
1979  5936
1980  6069
1981  5940
1982  5781
1983  5899
1984  5831
1985  5880
1986  5774
1987  5642
1988  5432
1989  5607
1990  5440
1991  5536
1992  5432
1993  5509
1994  5427
1995  5300
1996  5307
1997  5169
1998  5272
1999  5259
2000  5229
2001  5125
2002  5074
2003  5010
2004  5003
2005  4968
2006  4887
2007  4786
2008  4787
2009  4857
2010  4647
2011  4629
2012  4641
2013  4596
2014  4667
2015  4476
2016  4412
2017  4514
2018  4379
2019  4434
2020  4330
2021  4309
2022  4282
2023  4207
2024  4232
2025  4093
2026  4150
2027  4052
2028  4048
2029  4014
2030  3784
2031  3891
2032  3928
2033  3781
2034  3759
2035  3754
2036  3799
2037  3624
2038  3586
2039  3611
2040  3512
2041  3438
2042  3419
2043  3485
2044  3351
2045  3323
2046  3314
2047  3278
2048  3274
2049  3354
2050  3125
2051  3114
2052  3106
2053  3099
2054  3088
2055  2888
2056  2976
2057  2983
2058  2947
2059  2847
2060  2859
2061  2756
2062  2755
2063  2721
2064  2745
2065  2730
2066  2793
2067  2588
2068  2618
2069  2645
2070  2602
2071  2511
2072  2549
2073  2537
2074  2517
2075  2395
2076  2355
2077  2379
2078  2310
2079  2237
2080  2321
2081  2330
2082  2135
2083  2238
2084  2196
2085  2102
2086  2157
2087  2095
2088  2055
2089  2052
2090  2062
2091  2087
2092  1908
2093  1950
2094  1826
2095  1971
2096  1874
2097  1889
2098  1832
2099  1817
2100  1739
2101  1805
2102  1676
2103  1674
2104  1654
2105  1738
2106  1648
2107  1676
2108  1623
2109  1659
2110  1535
2111  1530
2112  1500
2113  1512
2114  1577
2115  1475
2116  1494
2117  1420
2118  1467
2119  1444
2120  1408
2121  1391
2122  1420
2123  1319
2124  1353
2125  1260
2126  1335
2127  1344
2128  1255
2129  1266
2130  1227
2131  1219
2132  1286
2133  1162
2134  1187
2135  1238
2136  1131
2137  1151
2138  1116
2139  1109
2140  1113
2141  1065
2142  1033
2143  1076
2144  1039
2145  1037
2146  1003
2147  1006
2148  964
2149  962
2150  978
2151  955
2152  936
2153  924
2154  883
2155  934
2156  911
2157  923
2158  869
2159  849
2160  851
2161  845
2162  875
2163  813
2164  802
2165  794
2166  842
2167  794
2168  783
2169  710
2170  779
2171  745
2172  743
2173  747
2174  669
2175  724
2176  683
2177  660
2178  708
2179  718
2180  683
2181  659
2182  637
2183  618
2184  634
2185  677
2186  601
2187  621
2188  616
2189  570
2190  569
2191  601
2192  540
2193  577
2194  555
2195  559
2196  598
2197  545
2198  512
2199  549
2200  514
2201  477
2202  528
2203  472
2204  494
2205  476
2206  523
2207  505
2208  466
2209  476
2210  453
2211  443
2212  444
2213  424
2214  424
2215  440
2216  413
2217  420
2218  454
2219  440
2220  385
2221  436
2222  386
2223  379
2224  382
2225  402
2226  417
2227  383
2228  398
2229  375
2230  374
2231  377
2232  352
2233  373
2234  372
2235  366
2236  320
2237  356
2238  356
2239  316
2240  343
2241  331
2242  343
2243  312
2244  291
2245  339
2246  325
2247  320
2248  323
2249  300
2250  309
2251  316
2252  292
2253  317
2254  261
2255  294
2256  275
2257  259
2258  267
2259  269
2260  243
2261  258
2262  274
2263  250
2264  282
2265  244
2266  253
2267  215
2268  239
2269  222
2270  265
2271  245
2272  210
2273  201
2274  246
2275  201
2276  205
2277  207
2278  218
2279  222
2280  185
2281  226
2282  209
2283  200
2284  200
2285  196
2286  196
2287  189
2288  188
2289  207
2290  151
2291  191
2292  173
2293  165
2294  166
2295  190
2296  159
2297  170
2298  187
2299  154
2300  159
2301  175
2302  166
2303  158
2304  149
2305  172
2306  155
2307  139
2308  165
2309  147
2310  148
2311  143
2312  134
2313  147
2314  138
2315  136
2316  139
2317  151
2318  136
2319  137
2320  154
2321  146
2322  147
2323  143
2324  121
2325  153
2326  114
2327  123
2328  119
2329  128
2330  121
2331  101
2332  112
2333  118
2334  111
2335  103
2336  109
2337  102
2338  104
2339  113
2340  127
2341  117
2342  98
2343  114
2344  109
2345  106
2346  105
2347  110
2348  97
2349  100
2350  91
2351  82
2352  88
2353  91
2354  110
2355  104
2356  84
2357  100
2358  86
2359  98
2360  91
2361  90
2362  100
2363  87
2364  88
2365  91
2366  77
2367  77
2368  92
2369  72
2370  89
2371  85
2372  83
2373  91
2374  79
2375  91
2376  80
2377  77
2378  73
2379  83
2380  69
2381  68
2382  81
2383  81
2384  69
2385  65
2386  69
2387  67
2388  64
2389  67
2390  72
2391  56
2392  54
2393  68
2394  63
2395  75
2396  59
2397  71
2398  55
2399  66
2400  69
2401  63
2402  48
2403  47
2404  63
2405  49
2406  52
2407  59
2408  60
2409  53
2410  60
2411  50
2412  50
2413  45
2414  46
2415  54
2416  50
2417  49
2418  57
2419  57
2420  47
2421  50
2422  43
2423  53
2424  47
2425  47
2426  46
2427  34
2428  63
2429  48
2430  38
2431  47
2432  41
2433  55
2434  44
2435  56
2436  43
2437  44
2438  42
2439  45
2440  60
2441  48
2442  34
2443  37
2444  29
2445  41
2446  35
2447  34
2448  24
2449  38
2450  29
2451  34
2452  44
2453  36
2454  31
2455  30
2456  45
2457  27
2458  24
2459  32
2460  30
2461  41
2462  27
2463  40
2464  30
2465  26
2466  37
2467  40
2468  25
2469  34
2470  31
2471  37
2472  34
2473  26
2474  32
2475  29
2476  25
2477  28
2478  22
2479  34
2480  24
2481  34
2482  35
2483  27
2484  31
2485  21
2486  34
2487  27
2488  28
2489  27
2490  33
2491  28
2492  19
2493  23
2494  20
2495  21
2496  28
2497  27
2498  20
2499  25
2500  29
2501  26
2502  32
2503  15
2504  33
2505  22
2506  26
2507  20
2508  24
2509  19
2510  22
2511  22
2512  24
2513  30
2514  17
2515  17
2516  29
2517  14
2518  31
2519  21
2520  23
2521  19
2522  27
2523  27
2524  22
2525  25
2526  23
2527  20
2528  20
2529  20
2530  23
2531  17
2532  27
2533  16
2534  16
2535  21
2536  26
2537  16
2538  24
2539  18
2540  18
2541  19
2542  16
2543  29
2544  21
2545  18
2546  20
2547  23
2548  20
2549  16
2550  19
2551  16
2552  24
2553  17
2554  19
2555  20
2556  12
2557  13
2558  16
2559  14
2560  22
2561  9
2562  30
2563  24
2564  14
2565  16
2566  12
2567  17
2568  17
2569  10
2570  14
2571  13
2572  14
2573  7
2574  14
2575  14
2576  11
2577  21
2578  14
2579  15
2580  18
2581  15
2582  12
2583  16
2584  12
2585  12
2586  10
2587  12
2588  5
2589  15
2590  7
2591  13
2592  14
2593  9
2594  20
2595  14
2596  12
2597  11
2598  16
2599  6
2600  12
2601  12
2602  11
2603  19
2604  8
2605  15
2606  14
2607  9
2608  10
2609  13
2610  20
2611  7
2612  14
2613  11
2614  14
2615  11
2616  11
2617  9
2618  9
2619  14
2620  8
2621  11
2622  7
2623  12
2624  8
2625  8
2626  2
2627  6
2628  8
2629  11
2630  3
2631  5
2632  13
2633  11
2634  14
2635  10
2636  11
2637  10
2638  7
2639  12
2640  10
2641  9
2642  13
2643  8
2644  10
2645  11
2646  8
2647  9
2648  7
2649  9
2650  9
2651  10
2652  7
2653  4
2654  13
2655  9
2656  10
2657  8
2658  12
2659  10
2660  9
2661  10
2662  7
2663  12
2664  6
2665  5
2666  11
2667  5
2668  10
2669  6
2670  5
2671  9
2672  9
2673  8
2674  8
2675  4
2676  10
2677  4
2678  9
2679  10
2680  6
2681  5
2682  4
2683  9
2684  9
2685  6
2686  10
2687  7
2688  6
2689  8
2690  5
2691  9
2692  12
2693  10
2694  3
2695  9
2696  9
2697  5
2698  8
2699  2
2700  6
2701  4
2702  4
2703  6
2704  10
2705  3
2706  7
2707  7
2708  3
2709  7
2710  7
2711  4
2712  9
2713  6
2714  6
2715  9
2716  4
2717  7
2718  6
2719  4
2720  6
2721  7
2722  0
2723  1
2724  3
2725  7
2726  7
2727  4
2728  10
2729  5
2730  5
2731  4
2732  5
2733  7
2734  3
2735  5
2736  5
2737  3
2738  4
2739  2
2740  6
2741  2
2742  5
2743  2
2744  7
2745  6
2746  5
2747  4
2748  5
2749  3
2750  5
2751  3
2752  3
2753  5
2754  2
2755  3
2756  9
2757  4
2758  2
2759  8
2760  1
2761  3
2762  6
2763  5
2764  10
2765  1
2766  2
2767  5
2768  7
2769  5
2770  7
2771  3
2772  6
2773  2
2774  4
2775  1
2776  4
2777  6
2778  6
2779  3
2780  5
2781  3
2782  3
2783  6
2784  7
2785  3
2786  7
2787  4
2788  4
2789  6
2790  5
2791  6
2792  3
2793  4
2794  4
2795  2
2796  2
2797  5
2798  3
2799  4
2800  4
2801  3
2802  4
2803  3
2804  2
2805  3
2806  5
2807  4
2808  0
2809  5
2810  2
2811  4
2812  2
2813  7
2814  5
2815  6
2816  3
2817  2
2818  2
2819  2
2820  2
2821  6
2822  2
2823  0
2824  1
2825  5
2826  3
2827  8
2828  3
2829  4
2830  3
2831  0
2832  1
2833  4
2834  2
2835  2
2836  6
2837  5
2838  2
2839  3
2840  1
2841  0
2842  3
2843  5
2844  3
2845  2
2846  3
2847  1
2848  0
2849  2
2850  2
2851  3
2852  4
2853  3
2854  1
2855  4
2856  2
2857  1
2858  4
2859  5
2860  4
2861  4
2862  6
2863  2
2864  3
2865  4
2866  2
2867  2
2868  2
2869  3
2870  2
2871  3
2872  4
2873  4
2874  1
2875  2
2876  1
2877  2
2878  2
2879  2
2880  4
2881  2
2882  3
2883  3
2884  1
2885  2
2886  2
2887  5
2888  0
2889  1
2890  1
2891  6
2892  5
2893  3
2894  0
2895  1
2896  4
2897  2
2898  1
2899  4
2900  1
2901  3
2902  8
2903  1
2904  1
2905  0
2906  2
2907  2
2908  3
2909  2
2910  4
2911  2
2912  1
2913  2
2914  2
2915  5
2916  5
2917  4
2918  3
2919  1
2920  0
2921  3
2922  2
2923  0
2924  3
2925  2
2926  2
2927  5
2928  2
2929  4
2930  1
2931  0
2932  2
2933  2
2934  5
2935  2
2936  2
2937  1
2938  2
2939  1
2940  1
2941  3
2942  2
2943  4
2944  3
2945  2
2946  2
2947  3
2948  1
2949  1
2950  0
2951  3
2952  2
2953  1
2954  4
2955  2
2956  4
2957  5
2958  2
2959  2
2960  5
2961  0
2962  3
2963  1
2964  2
2965  2
2966  2
2967  0
2968  1
2969  2
2970  0
2971  0
2972  0
2973  1
2974  4
2975  3
2976  2
2977  2
2978  0
2979  2
2980  6
2981  1
2982  4
2983  1
2984  1
2985  3
2986  2
2987  1
2988  0
2989  1
2990  1
2991  3
2992  2
2993  2
2994  1
2995  2
2996  3
2997  1
2998  4
2999  1
3000  1
3001  1
3002  1
3003  2
3004  3
3005  0
3006  2
3007  1
3008  0
3009  1
3010  1
3011  3
3012  2
3013  2
3014  0
3015  1
3016  1
3017  3
3018  2
3019  0
3020  1
3021  3
3022  0
3023  2
3024  0
3025  1
3026  1
3027  2
3028  2
3029  1
3030  3
3031  2
3032  3
3033  0
3034  0
3035  1
3036  1
3037  2
3038  0
3039  1
3040  4
3041  6
3042  1
3043  0
3044  3
3045  2
3046  1
3047  0
3048  0
3049  1
3050  3
3051  2
3052  2
3053  4
3054  0
3055  1
3056  0
3057  1
3058  0
3059  4
3060  3
3061  5
3062  0
3063  0
3064  1
3065  1
3066  2
3067  1
3068  2
3069  2
3070  6
3071  1
3072  1
3073  2
3074  2
3075  3
3076  1
3077  3
3078  1
3079  0
3080  2
3081  0
3082  1
3083  3
3084  0
3085  0
3086  1
3087  1
3088  1
3089  1
3090  1
3091  2
3092  1
3093  1
3094  2
3095  4
3096  1
3097  1
3098  2
3099  0
3100  1
3101  3
3102  0
3103  0
3104  1
3105  1
3106  0
3107  1
3108  2
3109  4
3110  2
3111  1
3112  1
3113  1
3114  0
3115  1
3116  1
3117  1
3118  0
3119  1
3120  2
3121  0
3122  0
3123  3
3124  2
3125  4
3126  0
3127  1
3128  2
3129  2
3130  3
3131  2
3132  2
3133  1
3134  1
3135  1
3136  1
3137  3
3138  4
3139  2
3140  1
3141  3
3142  1
3143  2
3144  0
3145  2
3146  2
3147  0
3148  1
3149  1
3150  2
3151  1
3152  1
3153  0
3154  1
3155  2
3156  1
3157  0
3158  2
3159  1
3160  1
3161  0
3162  2
3163  3
3164  2
3165  5
3166  3
3167  1
3168  1
3169  0
3170  0
3171  0
3172  0
3173  6
3174  1
3175  1
3176  0
3177  2
3178  1
3179  3
3180  2
3181  2
3182  1
3183  2
3184  2
3185  1
3186  0
3187  1
3188  0
3189  2
3190  1
3191  2
3192  2
3193  0
3194  1
3195  2
3196  1
3197  0
3198  3
3199  0
3200  2
3201  0
3202  3
3203  1
3204  2
3205  2
3206  0
3207  3
3208  2
3209  2
3210  6
3211  2
3212  2
3213  4
3214  1
3215  1
3216  1
3217  1
3218  0
3219  1
3220  1
3221  3
3222  1
3223  2
3224  0
3225  1
3226  2
3227  1
3228  2
3229  1
3230  1
3231  1
3232  2
3233  0
3234  1
3235  1
3236  0
3237  0
3238  2
3239  0
3240  0
3241  2
3242  3
3243  2
3244  0
3245  0
3246  0
3247  1
3248  0
3249  0
3250  0
3251  0
3252  0
3253  0
3254  1
3255  1
3256  0
3257  2
3258  2
3259  4
3260  2
3261  0
3262  0
3263  1
3264  0
3265  0
3266  1
3267  0
3268  1
3269  1
3270  0
3271  1
3272  1
3273  2
3274  0
3275  0
3276  0
3277  2
3278  3
3279  3
3280  3
3281  1
3282  0
3283  0
3284  3
3285  2
3286  2
3287  0
3288  0
3289  1
3290  0
3291  1
3292  1
3293  0
3294  0
3295  0
3296  1
3297  3
3298  1
3299  0
3300  2
3301  2
3302  0
3303  1
3304  1
3305  0
3306  0
3307  1
3308  0
3309  1
3310  1
3311  2
3312  1
3313  0
3314  0
3315  2
3316  1
3317  2
3318  0
3319  1
3320  0
3321  0
3322  1
3323  1
3324  3
3325  0
3326  1
3327  1
3328  1
3329  1
3330  0
3331  0
3332  1
3333  0
3334  2
3335  0
3336  3
3337  0
3338  0
3339  1
3340  2
3341  1
3342  1
3343  2
3344  0
3345  0
3346  1
3347  0
3348  1
3349  1
3350  1
3351  1
3352  1
3353  0
3354  1
3355  1
3356  1
3357  0
3358  2
3359  0
3360  1
3361  0
3362  1
3363  0
3364  0
3365  2
3366  0
3367  2
3368  1
3369  1
3370  1
3371  0
3372  3
3373  1
3374  0
3375  1
3376  1
3377  0
3378  1
3379  1
3380  1
3381  0
3382  2
3383  0
3384  1
3385  0
3386  2
3387  0
3388  1
3389  0
3390  0
3391  0
3392  1
3393  1
3394  2
3395  1
3396  0
3397  1
3398  0
3399  0
3400  0
3401  0
3402  3
3403  1
3404  2
3405  0
3406  1
3407  0
3408  1
3409  1
3410  1
3411  1
3412  0
3413  0
3414  2
3415  0
3416  0
3417  1
3418  0
3419  1
3420  1
3421  0
3422  3
3423  0
3424  1
3425  1
3426  1
3427  0
3428  0
3429  0
3430  1
3431  1
3432  0
3433  0
3434  2
3435  0
3436  2
3437  1
3438  0
3439  0
3440  1
3441  2
3442  2
3443  1
3444  2
3445  0
3446  0
3447  1
3448  2
3449  0
3450  0
3451  1
3452  1
3453  1
3454  2
3455  0
3456  0
3457  0
3458  0
3459  2
3460  0
3461  1
3462  1
3463  1
3464  0
3465  0
3466  1
3467  1
3468  0
3469  0
3470  1
3471  1
3472  0
3473  1
3474  1
3475  2
3476  2
3477  0
3478  2
3479  2
3480  0
3481  1
3482  0
3483  0
3484  1
3485  0
3486  0
3487  1
3488  0
3489  1
3490  0
3491  2
3492  2
3493  0
3494  1
3495  2
3496  2
3497  1
3498  2
3499  0
3500  0
3501  1
3502  2
3503  0
3504  0
3505  0
3506  1
3507  0
3508  0
3509  0
3510  0
3511  1
3512  1
3513  0
3514  0
3515  1
3516  1
3517  2
3518  0
3519  0
3520  0
3521  1
3522  0
3523  0
3524  1
3525  1
3526  0
3527  2
3528  1
3529  0
3530  1
3531  1
3532  0
3533  1
3534  0
3535  3
3536  0
3537  0
3538  0
3539  1
3540  0
3541  0
3542  1
3543  3
3544  0
3545  0
3546  0
3547  0
3548  1
3549  1
3550  0
3551  0
3552  1
3553  0
3554  1
3555  1
3556  0
3557  0
3558  1
3559  0
3560  3
3561  1
3562  1
3563  1
3564  3
3565  0
3566  1
3567  0
3568  0
3569  0
3570  1
3571  1
3572  1
3573  2
3574  1
3575  2
3576  3
3577  0
3578  1
3579  1
3580  0
3581  3
3582  0
3583  0
3584  0
3585  0
3586  1
3587  1
3588  0
3589  0
3590  1
3591  0
3592  0
3593  1
3594  0
3595  0
3596  0
3597  0
3598  0
3599  0
3600  1
3601  0
3602  1
3603  0
3604  0
3605  1
3606  1
3607  1
3608  1
3609  2
3610  2
3611  1
3612  1
3613  1
3614  1
3615  0
3616  0
3617  1
3618  1
3619  1
3620  0
3621  0
3622  0
3623  0
3624  0
3625  0
3626  0
3627  1
3628  1
3629  1
3630  0
3631  0
3632  1
3633  0
3634  0
3635  0
3636  2
3637  0
3638  1
3639  0
3640  1
3641  0
3642  1
3643  1
3644  0
3645  0
3646  1
3647  0
3648  0
3649  0
3650  0
3651  1
3652  0
3653  1
3654  0
3655  1
3656  0
3657  0
3658  2
3659  0
3660  0
3661  0
3662  1
3663  0
3664  1
3665  1
3666  0
3667  1
3668  1
3669  0
3670  1
3671  1
3672  0
3673  0
3674  0
3675  0
3676  0
3677  0
3678  0
3679  0
3680  0
3681  0
3682  0
3683  0
3684  0
3685  1
3686  0
3687  0
3688  1
3689  0
3690  0
3691  0
3692  0
3693  1
3694  0
3695  0
3696  1
3697  0
3698  1
3699  0
3700  0
3701  0
3702  0
3703  0
3704  0
3705  0
3706  1
3707  0
3708  0
3709  0
3710  1
3711  0
3712  0
3713  0
3714  0
3715  1
3716  0
3717  0
3718  0
3719  1
3720  1
3721  0
3722  0
3723  0
3724  0
3725  1
3726  1
3727  1
3728  0
3729  0
3730  0
3731  1
3732  0
3733  0
3734  0
3735  0
3736  0
3737  0
3738  0
3739  1
3740  1
3741  0
3742  0
3743  1
3744  0
3745  1
3746  2
3747  0
3748  1
3749  0
3750  1
3751  1
3752  0
3753  0
3754  0
3755  2
3756  0
3757  1
3758  0
3759  1
3760  1
3761  1
3762  0
3763  0
3764  1
3765  0
3766  0
3767  0
3768  0
3769  1
3770  0
3771  2
3772  2
3773  1
3774  0
3775  1
3776  0
3777  0
3778  0
3779  1
3780  1
3781  0
3782  0
3783  1
3784  0
3785  1
3786  1
3787  0
3788  0
3789  1
3790  0
3791  1
3792  0
3793  1
3794  0
3795  0
3796  0
3797  1
3798  0
3799  0
3800  0
3801  0
3802  0
3803  1
3804  0
3805  0
3806  1
3807  0
3808  0
3809  0
3810  0
3811  0
3812  0
3813  1
3814  0
3815  0
3816  0
3817  0
3818  0
3819  2
3820  0
3821  0
3822  0
3823  0
3824  1
3825  0
3826  0
3827  1
3828  1
3829  0
3830  0
3831  2
3832  0
3833  0
3834  1
3835  0
3836  0
3837  0
3838  1
3839  1
3840  0
3841  0
3842  0
3843  0
3844  0
3845  0
3846  0
3847  0
3848  0
3849  0
3850  0
3851  0
3852  0
3853  0
3854  0
3855  0
3856  0
3857  0
3858  0
3859  0
3860  0
3861  0
3862  0
3863  0
3864  0
3865  0
3866  0
3867  0
3868  0
3869  0
3870  0
3871  0
3872  0
3873  0
3874  0
3875  0
3876  0
3877  0
3878  0
3879  0
3880  0
3881  0
3882  0
3883  0
3884  0
3885  0
3886  0
3887  0
3888  0
3889  0
3890  0
3891  0
3892  0
3893  0
3894  0
3895  0
3896  0
3897  0
3898  0
3899  0
3900  0
3901  0
3902  0
3903  0
3904  0
3905  0
3906  0
3907  0
3908  0
3909  0
3910  0
3911  0
3912  0
3913  0
3914  0
3915  0
3916  0
3917  0
3918  0
3919  0
3920  0
3921  0
3922  0
3923  0
3924  0
3925  0
3926  0
3927  0
3928  0
3929  0
3930  0
3931  0
3932  0
3933  0
3934  0
3935  0
3936  0
3937  0
3938  0
3939  0
3940  0
3941  0
3942  0
3943  0
3944  0
3945  0
3946  0
3947  0
3948  0
3949  0
3950  0
3951  0
3952  0
3953  0
3954  0
3955  0
3956  0
3957  0
3958  0
3959  0
3960  0
3961  0
3962  0
3963  0
3964  0
3965  0
3966  0
3967  0
3968  0
3969  0
3970  0
3971  0
3972  0
3973  0
3974  0
3975  0
3976  0
3977  0
3978  0
3979  0
3980  0
3981  0
3982  0
3983  0
3984  0
3985  0
3986  0
3987  0
3988  0
3989  0
3990  0
3991  0
3992  0
3993  0
3994  0
3995  0
3996  0
3997  0
3998  0
3999  0
4000  0
4001  0
4002  0
4003  0
4004  0
4005  0
4006  0
4007  0
4008  0
4009  0
4010  0
4011  0
4012  0
4013  0
4014  0
4015  0
4016  0
4017  0
4018  0
4019  0
4020  0
4021  0
4022  0
4023  0
4024  0
4025  0
4026  0
4027  0
4028  0
4029  0
4030  0
4031  0
4032  0
4033  0
4034  0
4035  0
4036  0
4037  0
4038  0
4039  0
4040  0
4041  0
4042  0
4043  0
4044  0
4045  0
4046  0
4047  0
4048  0
4049  0
4050  0
4051  0
4052  0
4053  0
4054  0
4055  0
4056  0
4057  0
4058  0
4059  0
4060  0
4061  0
4062  0
4063  0
4064  0
4065  0
4066  0
4067  0
4068  0
4069  0
4070  0
4071  0
4072  0
4073  0
4074  0
4075  0
4076  0
4077  0
4078  0
4079  0
4080  0
4081  0
4082  0
4083  0
4084  0
4085  0
4086  0
4087  0
4088  0
4089  0
4090  0
4091  0
4092  0
4093  0
4094  0
4095  0
