0  0
1  0
2  0
3  0
4  0
5  0
6  0
7  0
8  0
9  0
10  0
11  0
12  0
13  0
14  5
15  167
16  616
17  655
18  228
19  76
20  42
21  16
22  6
23  7
24  7
25  2
26  6
27  10
28  3
29  10
30  6
31  6
32  10
33  13
34  10
35  8
36  6
37  5
38  6
39  8
40  3
41  8
42  4
43  1
44  3
45  1
46  1
47  2
48  0
49  0
50  0
51  0
52  0
53  0
54  0
55  0
56  0
57  0
58  0
59  0
60  0
61  0
62  0
63  0
64  0
65  0
66  0
67  0
68  0
69  0
70  0
71  0
72  0
73  0
74  0
75  0
76  0
77  0
78  0
79  0
80  0
81  0
82  0
83  0
84  0
85  0
86  0
87  0
88  0
89  0
90  0
91  0
92  0
93  0
94  0
95  0
96  0
97  0
98  0
99  0
100  0
101  0
102  0
103  0
104  0
105  0
106  0
107  0
108  0
109  0
110  0
111  0
112  0
113  0
114  0
115  0
116  0
117  0
118  0
119  0
120  0
121  0
122  0
123  0
124  0
125  0
126  0
127  0
128  0
129  0
130  0
131  0
132  0
133  0
134  0
135  0
136  0
137  0
138  0
139  0
140  0
141  0
142  0
143  0
144  0
145  0
146  0
147  0
148  0
149  0
150  0
151  0
152  0
153  0
154  0
155  0
156  0
157  0
158  0
159  0
160  0
161  0
162  0
163  0
164  0
165  0
166  0
167  0
168  0
169  0
170  0
171  0
172  0
173  0
174  0
175  0
176  0
177  0
178  0
179  0
180  0
181  10
182  98
183  328
184  533
185  631
186  659
187  490
188  264
189  139
190  83
191  75
192  48
193  60
194  50
195  40
196  40
197  44
198  32
199  31
200  33
201  28
202  35
203  32
204  23
205  27
206  38
207  30
208  32
209  28
210  40
211  20
212  34
213  23
214  29
215  27
216  27
217  25
218  22
219  34
220  30
221  39
222  31
223  27
224  26
225  25
226  29
227  37
228  28
229  29
230  19
231  30
232  30
233  31
234  28
235  29
236  23
237  28
238  25
239  33
240  42
241  28
242  27
243  32
244  32
245  24
246  18
247  27
248  33
249  33
250  24
251  26
252  30
253  23
254  32
255  32
256  30
257  27
258  29
259  27
260  28
261  31
262  39
263  18
264  30
265  24
266  32
267  30
268  24
269  31
270  39
271  40
272  34
273  24
274  32
275  36
276  24
277  21
278  30
279  28
280  32
281  31
282  33
283  21
284  32
285  23
286  32
287  33
288  22
289  29
290  37
291  32
292  16
293  32
294  26
295  27
296  24
297  28
298  33
299  35
300  33
301  28
302  33
303  35
304  23
305  30
306  27
307  27
308  28
309  32
310  36
311  27
312  25
313  25
314  30
315  28
316  21
317  32
318  22
319  27
320  20
321  16
322  33
323  27
324  32
325  30
326  24
327  22
328  35
329  33
330  30
331  34
332  30
333  30
334  36
335  32
336  26
337  37
338  30
339  28
340  30
341  27
342  27
343  31
344  27
345  29
346  24
347  24
348  28
349  30
350  19
351  38
352  26
353  19
354  26
355  29
356  30
357  30
358  20
359  28
360  26
361  18
362  20
363  31
364  35
365  33
366  26
367  21
368  26
369  29
370  24
371  32
372  19
373  42
374  24
375  27
376  25
377  30
378  24
379  33
380  37
381  19
382  22
383  26
384  34
385  28
386  27
387  33
388  31
389  32
390  24
391  34
392  33
393  32
394  30
395  29
396  21
397  25
398  22
399  28
400  27
401  29
402  26
403  15
404  22
405  27
406  25
407  24
408  31
409  32
410  26
411  29
412  23
413  29
414  25
415  43
416  33
417  29
418  31
419  26
420  29
421  35
422  21
423  28
424  40
425  17
426  25
427  33
428  30
429  29
430  32
431  30
432  29
433  27
434  16
435  24
436  27
437  36
438  30
439  30
440  32
441  25
442  17
443  37
444  32
445  25
446  30
447  35
448  25
449  32
450  40
451  25
452  23
453  25
454  27
455  32
456  34
457  37
458  17
459  32
460  31
461  22
462  33
463  29
464  23
465  30
466  22
467  30
468  37
469  39
470  27
471  31
472  28
473  38
474  26
475  20
476  31
477  23
478  25
479  31
480  23
481  34
482  24
483  29
484  36
485  26
486  26
487  36
488  47
489  29
490  25
491  27
492  30
493  29
494  26
495  38
496  25
497  30
498  33
499  29
500  25
501  34
502  30
503  17
504  26
505  33
506  28
507  27
508  20
509  25
510  30
511  41
512  23
513  35
514  33
515  32
516  29
517  31
518  33
519  36
520  29
521  29
522  23
523  32
524  36
525  26
526  33
527  37
528  22
529  26
530  35
531  27
532  31
533  30
534  24
535  27
536  30
537  34
538  29
539  36
540  25
541  31
542  33
543  40
544  26
545  25
546  23
547  33
548  37
549  28
550  28
551  33
552  34
553  36
554  27
555  27
556  26
557  21
558  27
559  24
560  25
561  39
562  37
563  38
564  27
565  19
566  35
567  28
568  34
569  36
570  27
571  23
572  31
573  26
574  31
575  26
576  31
577  37
578  30
579  26
580  31
581  25
582  15
583  33
584  20
585  27
586  26
587  30
588  24
589  29
590  28
591  24
592  27
593  27
594  26
595  25
596  28
597  31
598  20
599  26
600  28
601  30
602  25
603  29
604  26
605  29
606  29
607  21
608  29
609  15
610  28
611  36
612  31
613  24
614  23
615  26
616  40
617  28
618  30
619  29
620  29
621  28
622  32
623  25
624  22
625  22
626  29
627  30
628  27
629  29
630  37
631  34
632  25
633  24
634  29
635  26
636  29
637  28
638  29
639  42
640  28
641  19
642  30
643  24
644  24
645  32
646  43
647  26
648  36
649  32
650  28
651  34
652  27
653  22
654  27
655  19
656  20
657  27
658  27
659  27
660  25
661  30
662  35
663  30
664  26
665  31
666  18
667  24
668  29
669  34
670  23
671  34
672  30
673  24
674  25
675  30
676  29
677  34
678  20
679  31
680  27
681  35
682  30
683  31
684  23
685  25
686  37
687  33
688  33
689  25
690  32
691  25
692  36
693  35
694  23
695  24
696  28
697  37
698  25
699  25
700  25
701  26
702  32
703  23
704  26
705  17
706  32
707  24
708  32
709  26
710  19
711  30
712  30
713  42
714  29
715  29
716  42
717  27
718  33
719  25
720  36
721  32
722  29
723  25
724  28
725  35
726  29
727  25
728  21
729  26
730  33
731  29
732  31
733  19
734  31
735  42
736  28
737  25
738  30
739  27
740  28
741  20
742  32
743  25
744  25
745  28
746  38
747  26
748  33
749  28
750  40
751  25
752  29
753  28
754  26
755  27
756  34
757  26
758  29
759  34
760  22
761  34
762  29
763  36
764  30
765  29
766  23
767  26
768  27
769  26
770  33
771  36
772  31
773  28
774  40
775  27
776  34
777  27
778  36
779  34
780  36
781  23
782  28
783  35
784  23
785  34
786  24
787  27
788  22
789  30
790  18
791  21
792  31
793  29
794  39
795  25
796  33
797  29
798  27
799  26
800  26
801  29
802  35
803  29
804  25
805  28
806  30
807  29
808  20
809  19
810  42
811  19
812  28
813  23
814  30
815  23
816  29
817  24
818  29
819  30
820  32
821  27
822  26
823  35
824  37
825  23
826  22
827  26
828  23
829  22
830  29
831  30
832  21
833  33
834  24
835  35
836  25
837  20
838  27
839  40
840  26
841  31
842  30
843  36
844  33
845  31
846  24
847  27
848  39
849  31
850  32
851  38
852  22
853  26
854  28
855  25
856  36
857  24
858  28
859  23
860  32
861  23
862  29
863  26
864  25
865  29
866  27
867  35
868  28
869  31
870  33
871  16
872  24
873  34
874  27
875  36
876  35
877  26
878  22
879  30
880  19
881  37
882  27
883  28
884  22
885  23
886  28
887  23
888  36
889  21
890  26
891  30
892  29
893  31
894  33
895  29
896  23
897  30
898  33
899  26
900  36
901  27
902  23
903  38
904  33
905  28
906  27
907  30
908  32
909  37
910  42
911  29
912  36
913  48
914  27
915  27
916  35
917  34
918  31
919  20
920  33
921  28
922  32
923  25
924  29
925  32
926  25
927  25
928  26
929  22
930  21
931  29
932  28
933  31
934  27
935  25
936  31
937  29
938  38
939  31
940  34
941  31
942  33
943  25
944  30
945  24
946  28
947  41
948  27
949  23
950  22
951  30
952  30
953  25
954  33
955  31
956  25
957  28
958  25
959  29
960  30
961  21
962  28
963  32
964  23
965  29
966  25
967  33
968  39
969  30
970  25
971  29
972  31
973  28
974  35
975  37
976  31
977  36
978  43
979  26
980  29
981  34
982  29
983  37
984  30
985  31
986  25
987  30
988  30
989  32
990  26
991  33
992  31
993  28
994  32
995  26
996  30
997  31
998  39
999  31
1000  33
1001  33
1002  29
1003  30
1004  28
1005  35
1006  26
1007  33
1008  34
1009  28
1010  37
1011  35
1012  38
1013  45
1014  35
1015  32
1016  30
1017  31
1018  30
1019  37
1020  23
1021  22
1022  23
1023  27
1024  32
1025  30
1026  27
1027  38
1028  29
1029  34
1030  21
1031  24
1032  25
1033  36
1034  30
1035  25
1036  23
1037  17
1038  22
1039  30
1040  38
1041  32
1042  28
1043  28
1044  31
1045  26
1046  39
1047  27
1048  28
1049  24
1050  25
1051  34
1052  27
1053  38
1054  32
1055  28
1056  34
1057  26
1058  38
1059  38
1060  29
1061  21
1062  25
1063  32
1064  30
1065  36
1066  39
1067  28
1068  33
1069  47
1070  29
1071  26
1072  27
1073  26
1074  32
1075  35
1076  22
1077  28
1078  35
1079  33
1080  39
1081  26
1082  32
1083  27
1084  26
1085  32
1086  31
1087  40
1088  27
1089  32
1090  26
1091  39
1092  31
1093  32
1094  37
1095  49
1096  32
1097  41
1098  31
1099  27
1100  31
1101  36
1102  22
1103  27
1104  45
1105  32
1106  29
1107  25
1108  30
1109  25
1110  31
1111  32
1112  22
1113  32
1114  31
1115  24
1116  32
1117  35
1118  27
1119  34
1120  38
1121  32
1122  23
1123  38
1124  30
1125  27
1126  34
1127  40
1128  33
1129  35
1130  36
1131  34
1132  28
1133  28
1134  27
1135  37
1136  38
1137  28
1138  26
1139  43
1140  20
1141  40
1142  32
1143  34
1144  32
1145  34
1146  32
1147  34
1148  42
1149  29
1150  39
1151  39
1152  28
1153  38
1154  32
1155  25
1156  21
1157  32
1158  35
1159  24
1160  28
1161  34
1162  33
1163  36
1164  19
1165  41
1166  36
1167  27
1168  44
1169  29
1170  33
1171  24
1172  33
1173  32
1174  30
1175  31
1176  41
1177  33
1178  33
1179  32
1180  31
1181  37
1182  39
1183  28
1184  31
1185  33
1186  25
1187  38
1188  35
1189  29
1190  30
1191  39
1192  34
1193  44
1194  30
1195  31
1196  34
1197  24
1198  36
1199  25
1200  26
1201  27
1202  26
1203  27
1204  35
1205  43
1206  42
1207  38
1208  27
1209  32
1210  39
1211  26
1212  30
1213  35
1214  31
1215  39
1216  42
1217  32
1218  32
1219  30
1220  30
1221  30
1222  30
1223  36
1224  34
1225  29
1226  39
1227  36
1228  32
1229  36
1230  32
1231  38
1232  38
1233  34
1234  36
1235  21
1236  31
1237  46
1238  38
1239  31
1240  31
1241  35
1242  25
1243  30
1244  42
1245  28
1246  38
1247  28
1248  21
1249  32
1250  28
1251  40
1252  39
1253  38
1254  23
1255  26
1256  28
1257  31
1258  43
1259  35
1260  19
1261  27
1262  30
1263  30
1264  29
1265  31
1266  38
1267  23
1268  31
1269  25
1270  40
1271  39
1272  30
1273  30
1274  30
1275  30
1276  26
1277  30
1278  34
1279  37
1280  35
1281  17
1282  23
1283  30
1284  31
1285  31
1286  29
1287  34
1288  31
1289  28
1290  31
1291  32
1292  30
1293  26
1294  35
1295  37
1296  45
1297  24
1298  35
1299  37
1300  29
1301  32
1302  38
1303  30
1304  44
1305  29
1306  34
1307  37
1308  29
1309  36
1310  36
1311  35
1312  34
1313  37
1314  27
1315  38
1316  32
1317  23
1318  38
1319  44
1320  33
1321  31
1322  31
1323  35
1324  46
1325  34
1326  25
1327  34
1328  28
1329  34
1330  32
1331  27
1332  27
1333  24
1334  39
1335  31
1336  35
1337  25
1338  37
1339  30
1340  37
1341  33
1342  23
1343  32
1344  32
1345  29
1346  26
1347  28
1348  39
1349  32
1350  44
1351  29
1352  25
1353  31
1354  33
1355  36
1356  20
1357  38
1358  20
1359  23
1360  33
1361  26
1362  37
1363  22
1364  35
1365  39
1366  34
1367  34
1368  35
1369  35
1370  33
1371  33
1372  41
1373  35
1374  44
1375  36
1376  25
1377  31
1378  39
1379  30
1380  30
1381  37
1382  35
1383  40
1384  26
1385  39
1386  35
1387  34
1388  34
1389  44
1390  47
1391  37
1392  39
1393  43
1394  32
1395  34
1396  35
1397  33
1398  36
1399  46
1400  40
1401  28
1402  35
1403  41
1404  33
1405  34
1406  33
1407  23
1408  40
1409  46
1410  38
1411  33
1412  41
1413  37
1414  34
1415  35
1416  30
1417  38
1418  39
1419  32
1420  35
1421  34
1422  34
1423  29
1424  38
1425  31
1426  38
1427  45
1428  37
1429  30
1430  31
1431  36
1432  29
1433  34
1434  41
1435  37
1436  36
1437  34
1438  44
1439  48
1440  32
1441  46
1442  43
1443  27
1444  47
1445  40
1446  26
1447  45
1448  47
1449  32
1450  35
1451  35
1452  34
1453  41
1454  43
1455  34
1456  25
1457  29
1458  45
1459  32
1460  33
1461  43
1462  33
1463  37
1464  32
1465  32
1466  27
1467  39
1468  38
1469  25
1470  28
1471  37
1472  35
1473  42
1474  24
1475  46
1476  32
1477  50
1478  42
1479  40
1480  42
1481  33
1482  33
1483  48
1484  44
1485  45
1486  55
1487  34
1488  38
1489  36
1490  51
1491  40
1492  36
1493  36
1494  42
1495  35
1496  36
1497  57
1498  61
1499  39
1500  48
1501  46
1502  45
1503  63
1504  52
1505  58
1506  53
1507  52
1508  52
1509  50
1510  62
1511  50
1512  41
1513  46
1514  48
1515  43
1516  54
1517  46
1518  41
1519  52
1520  44
1521  32
1522  40
1523  40
1524  37
1525  31
1526  34
1527  45
1528  35
1529  34
1530  40
1531  41
1532  32
1533  36
1534  37
1535  28
1536  35
1537  31
1538  34
1539  39
1540  35
1541  31
1542  40
1543  40
1544  22
1545  37
1546  28
1547  33
1548  38
1549  31
1550  42
1551  46
1552  32
1553  33
1554  36
1555  46
1556  27
1557  37
1558  32
1559  34
1560  31
1561  50
1562  45
1563  37
1564  43
1565  31
1566  44
1567  26
1568  32
1569  43
1570  44
1571  44
1572  37
1573  38
1574  42
1575  42
1576  36
1577  26
1578  39
1579  27
1580  44
1581  39
1582  35
1583  37
1584  36
1585  54
1586  31
1587  34
1588  29
1589  42
1590  33
1591  44
1592  41
1593  36
1594  42
1595  39
1596  31
1597  35
1598  33
1599  42
1600  50
1601  41
1602  42
1603  39
1604  34
1605  43
1606  37
1607  51
1608  45
1609  29
1610  44
1611  35
1612  39
1613  32
1614  45
1615  42
1616  45
1617  42
1618  40
1619  36
1620  49
1621  35
1622  56
1623  38
1624  49
1625  43
1626  47
1627  50
1628  51
1629  55
1630  54
1631  51
1632  44
1633  42
1634  44
1635  48
1636  31
1637  46
1638  41
1639  57
1640  49
1641  45
1642  37
1643  32
1644  38
1645  30
1646  32
1647  32
1648  36
1649  36
1650  37
1651  41
1652  51
1653  32
1654  35
1655  28
1656  48
1657  37
1658  32
1659  27
1660  26
1661  27
1662  42
1663  25
1664  31
1665  28
1666  35
1667  31
1668  36
1669  29
1670  35
1671  21
1672  35
1673  33
1674  33
1675  32
1676  31
1677  24
1678  34
1679  34
1680  26
1681  26
1682  35
1683  31
1684  44
1685  33
1686  23
1687  28
1688  32
1689  26
1690  28
1691  37
1692  34
1693  28
1694  33
1695  30
1696  28
1697  31
1698  41
1699  30
1700  35
1701  41
1702  34
1703  32
1704  35
1705  32
1706  27
1707  22
1708  32
1709  34
1710  31
1711  39
1712  23
1713  27
1714  38
1715  45
1716  32
1717  38
1718  31
1719  40
1720  40
1721  28
1722  38
1723  49
1724  29
1725  48
1726  44
1727  29
1728  48
1729  26
1730  34
1731  43
1732  38
1733  36
1734  33
1735  48
1736  51
1737  42
1738  32
1739  45
1740  39
1741  51
1742  38
1743  45
1744  41
1745  48
1746  50
1747  40
1748  47
1749  51
1750  35
1751  55
1752  61
1753  74
1754  51
1755  45
1756  49
1757  57
1758  55
1759  52
1760  56
1761  53
1762  60
1763  56
1764  56
1765  64
1766  58
1767  59
1768  63
1769  60
1770  59
1771  82
1772  58
1773  63
1774  70
1775  48
1776  83
1777  53
1778  60
1779  69
1780  66
1781  55
1782  76
1783  61
1784  73
1785  56
1786  69
1787  71
1788  77
1789  56
1790  51
1791  72
1792  75
1793  57
1794  66
1795  83
1796  74
1797  82
1798  75
1799  69
1800  77
1801  77
1802  81
1803  68
1804  66
1805  63
1806  73
1807  84
1808  82
1809  79
1810  70
1811  75
1812  72
1813  74
1814  67
1815  77
1816  79
1817  76
1818  82
1819  75
1820  83
1821  69
1822  75
1823  63
1824  77
1825  83
1826  96
1827  78
1828  107
1829  71
1830  68
1831  80
1832  75
1833  81
1834  80
1835  86
1836  79
1837  68
1838  85
1839  86
1840  79
1841  83
1842  82
1843  93
1844  79
1845  79
1846  90
1847  94
1848  87
1849  80
1850  92
1851  74
1852  73
1853  89
1854  84
1855  68
1856  84
1857  78
1858  93
1859  86
1860  86
1861  93
1862  91
1863  94
1864  78
1865  105
1866  101
1867  96
1868  99
1869  99
1870  92
1871  99
1872  98
1873  110
1874  110
1875  97
1876  97
1877  98
1878  94
1879  112
1880  112
1881  115
1882  89
1883  105
1884  121
1885  102
1886  101
1887  135
1888  126
1889  122
1890  113
1891  117
1892  135
1893  128
1894  153
1895  126
1896  153
1897  151
1898  149
1899  144
1900  132
1901  150
1902  157
1903  141
1904  158
1905  161
1906  149
1907  141
1908  176
1909  177
1910  131
1911  202
1912  178
1913  152
1914  197
1915  201
1916  192
1917  184
1918  169
1919  205
1920  197
1921  154
1922  188
1923  199
1924  177
1925  199
1926  220
1927  198
1928  195
1929  213
1930  224
1931  242
1932  228
1933  242
1934  226
1935  243
1936  250
1937  238
1938  216
1939  245
1940  242
1941  261
1942  231
1943  263
1944  270
1945  272
1946  232
1947  267
1948  298
1949  266
1950  271
1951  309
1952  262
1953  331
1954  297
1955  307
1956  300
1957  327
1958  335
1959  352
1960  340
1961  367
1962  385
1963  370
1964  383
1965  373
1966  378
1967  409
1968  473
1969  457
1970  463
1971  480
1972  524
1973  472
1974  544
1975  632
1976  681
1977  722
1978  760
1979  810
1980  823
1981  883
1982  945
1983  1071
1984  1094
1985  1246
1986  1367
1987  1487
1988  1479
1989  1586
1990  1641
1991  1754
1992  1767
1993  1866
1994  1859
1995  1905
1996  2003
1997  1957
1998  1880
1999  1794
2000  1875
2001  1847
2002  1707
2003  1694
2004  1576
2005  1539
2006  1440
2007  1390
2008  1188
2009  1214
2010  999
2011  926
2012  805
2013  680
2014  615
2015  483
2016  434
2017  355
2018  311
2019  301
2020  234
2021  203
2022  173
2023  171
2024  145
2025  156
2026  163
2027  184
2028  142
2029  172
2030  167
2031  155
2032  169
2033  198
2034  182
2035  202
2036  197
2037  183
2038  180
2039  199
2040  206
2041  209
2042  209
2043  226
2044  205
2045  226
2046  220
2047  241
2048  208
2049  251
2050  258
2051  281
2052  251
2053  259
2054  255
2055  257
2056  236
2057  275
2058  286
2059  301
2060  323
2061  347
2062  322
2063  310
2064  377
2065  335
2066  392
2067  391
2068  357
2069  457
2070  455
2071  395
2072  484
2073  535
2074  537
2075  541
2076  555
2077  587
2078  615
2079  619
2080  636
2081  684
2082  666
2083  648
2084  717
2085  735
2086  696
2087  677
2088  645
2089  671
2090  705
2091  709
2092  685
2093  637
2094  667
2095  690
2096  653
2097  673
2098  693
2099  695
2100  689
2101  699
2102  728
2103  803
2104  826
2105  871
2106  969
2107  1000
2108  1136
2109  1187
2110  1292
2111  1395
2112  1442
2113  1634
2114  1588
2115  1668
2116  1696
2117  1765
2118  1851
2119  1808
2120  1886
2121  1919
2122  1855
2123  1841
2124  1741
2125  1745
2126  1650
2127  1608
2128  1479
2129  1417
2130  1364
2131  1218
2132  1105
2133  1013
2134  909
2135  720
2136  603
2137  537
2138  466
2139  366
2140  299
2141  220
2142  149
2143  121
2144  94
2145  71
2146  74
2147  46
2148  34
2149  38
2150  34
2151  36
2152  27
2153  27
2154  34
2155  32
2156  31
2157  29
2158  33
2159  20
2160  29
2161  18
2162  27
2163  34
2164  33
2165  30
2166  31
2167  31
2168  17
2169  28
2170  27
2171  25
2172  25
2173  32
2174  33
2175  24
2176  38
2177  36
2178  40
2179  30
2180  26
2181  32
2182  26
2183  30
2184  26
2185  20
2186  33
2187  36
2188  24
2189  27
2190  28
2191  26
2192  43
2193  27
2194  28
2195  26
2196  30
2197  30
2198  28
2199  27
2200  23
2201  42
2202  33
2203  27
2204  32
2205  31
2206  27
2207  23
2208  21
2209  34
2210  22
2211  22
2212  21
2213  34
2214  29
2215  40
2216  34
2217  27
2218  36
2219  26
2220  26
2221  27
2222  29
2223  22
2224  35
2225  28
2226  23
2227  38
2228  33
2229  28
2230  37
2231  30
2232  27
2233  28
2234  34
2235  31
2236  26
2237  26
2238  33
2239  23
2240  33
2241  26
2242  23
2243  27
2244  22
2245  30
2246  23
2247  33
2248  24
2249  19
2250  23
2251  22
2252  30
2253  32
2254  27
2255  26
2256  35
2257  30
2258  24
2259  34
2260  25
2261  29
2262  28
2263  42
2264  29
2265  28
2266  31
2267  33
2268  27
2269  33
2270  35
2271  28
2272  42
2273  34
2274  32
2275  30
2276  36
2277  26
2278  29
2279  15
2280  31
2281  26
2282  31
2283  23
2284  29
2285  34
2286  35
2287  28
2288  32
2289  22
2290  32
2291  40
2292  30
2293  31
2294  36
2295  30
2296  26
2297  39
2298  24
2299  31
2300  24
2301  17
2302  21
2303  21
2304  27
2305  28
2306  36
2307  28
2308  27
2309  26
2310  35
2311  35
2312  36
2313  34
2314  22
2315  36
2316  31
2317  29
2318  31
2319  26
2320  32
2321  34
2322  30
2323  21
2324  32
2325  32
2326  33
2327  24
2328  25
2329  28
2330  20
2331  24
2332  33
2333  29
2334  30
2335  32
2336  25
2337  24
2338  25
2339  20
2340  35
2341  24
2342  26
2343  22
2344  19
2345  29
2346  25
2347  33
2348  28
2349  27
2350  31
2351  29
2352  24
2353  30
2354  28
2355  31
2356  28
2357  27
2358  27
2359  24
2360  30
2361  36
2362  29
2363  23
2364  42
2365  21
2366  29
2367  30
2368  35
2369  21
2370  31
2371  31
2372  34
2373  28
2374  26
2375  32
2376  37
2377  28
2378  26
2379  26
2380  32
2381  35
2382  35
2383  24
2384  35
2385  29
2386  37
2387  25
2388  31
2389  27
2390  24
2391  29
2392  29
2393  33
2394  32
2395  17
2396  25
2397  32
2398  26
2399  30
2400  25
2401  26
2402  26
2403  32
2404  31
2405  22
2406  26
2407  30
2408  37
2409  26
2410  24
2411  32
2412  25
2413  42
2414  20
2415  31
2416  26
2417  28
2418  30
2419  32
2420  35
2421  30
2422  25
2423  28
2424  28
2425  28
2426  32
2427  36
2428  34
2429  29
2430  35
2431  26
2432  25
2433  32
2434  31
2435  28
2436  29
2437  27
2438  31
2439  31
2440  22
2441  25
2442  36
2443  33
2444  35
2445  22
2446  34
2447  29
2448  28
2449  24
2450  28
2451  25
2452  34
2453  29
2454  38
2455  33
2456  31
2457  29
2458  31
2459  29
2460  30
2461  24
2462  25
2463  30
2464  37
2465  27
2466  27
2467  38
2468  25
2469  25
2470  29
2471  22
2472  27
2473  22
2474  27
2475  20
2476  30
2477  22
2478  33
2479  32
2480  21
2481  36
2482  21
2483  35
2484  35
2485  29
2486  30
2487  23
2488  39
2489  30
2490  31
2491  40
2492  26
2493  31
2494  37
2495  26
2496  31
2497  31
2498  32
2499  29
2500  27
2501  30
2502  34
2503  36
2504  22
2505  27
2506  26
2507  27
2508  27
2509  23
2510  34
2511  27
2512  29
2513  26
2514  37
2515  27
2516  32
2517  35
2518  13
2519  37
2520  26
2521  22
2522  33
2523  32
2524  27
2525  24
2526  18
2527  38
2528  32
2529  22
2530  30
2531  35
2532  19
2533  28
2534  26
2535  33
2536  32
2537  29
2538  25
2539  28
2540  36
2541  30
2542  40
2543  30
2544  28
2545  29
2546  28
2547  24
2548  31
2549  34
2550  33
2551  33
2552  20
2553  35
2554  25
2555  24
2556  27
2557  23
2558  25
2559  19
2560  27
2561  37
2562  22
2563  39
2564  28
2565  30
2566  22
2567  40
2568  19
2569  32
2570  27
2571  22
2572  35
2573  26
2574  24
2575  34
2576  31
2577  24
2578  23
2579  23
2580  19
2581  35
2582  32
2583  28
2584  22
2585  25
2586  27
2587  39
2588  18
2589  34
2590  25
2591  24
2592  28
2593  28
2594  34
2595  33
2596  29
2597  26
2598  36
2599  27
2600  35
2601  26
2602  23
2603  32
2604  35
2605  30
2606  26
2607  27
2608  26
2609  26
2610  22
2611  34
2612  24
2613  37
2614  22
2615  29
2616  28
2617  25
2618  24
2619  28
2620  19
2621  23
2622  22
2623  30
2624  25
2625  34
2626  37
2627  21
2628  25
2629  27
2630  31
2631  26
2632  35
2633  24
2634  29
2635  22
2636  27
2637  34
2638  18
2639  36
2640  28
2641  38
2642  32
2643  27
2644  31
2645  32
2646  29
2647  36
2648  33
2649  31
2650  33
2651  33
2652  25
2653  30
2654  28
2655  27
2656  18
2657  35
2658  34
2659  30
2660  30
2661  34
2662  35
2663  33
2664  25
2665  27
2666  27
2667  30
2668  28
2669  26
2670  25
2671  30
2672  34
2673  31
2674  32
2675  29
2676  33
2677  39
2678  28
2679  32
2680  29
2681  28
2682  17
2683  25
2684  33
2685  33
2686  31
2687  25
2688  29
2689  30
2690  23
2691  35
2692  22
2693  38
2694  31
2695  23
2696  33
2697  31
2698  30
2699  26
2700  42
2701  26
2702  32
2703  32
2704  20
2705  20
2706  22
2707  36
2708  35
2709  28
2710  24
2711  27
2712  32
2713  31
2714  22
2715  25
2716  28
2717  39
2718  24
2719  34
2720  36
2721  37
2722  29
2723  29
2724  37
2725  35
2726  26
2727  34
2728  36
2729  33
2730  25
2731  32
2732  31
2733  23
2734  40
2735  16
2736  19
2737  41
2738  32
2739  25
2740  31
2741  24
2742  29
2743  32
2744  40
2745  38
2746  31
2747  25
2748  31
2749  32
2750  27
2751  27
2752  21
2753  38
2754  27
2755  29
2756  27
2757  31
2758  22
2759  23
2760  35
2761  34
2762  28
2763  27
2764  21
2765  27
2766  30
2767  25
2768  30
2769  27
2770  28
2771  29
2772  29
2773  30
2774  34
2775  37
2776  31
2777  26
2778  36
2779  35
2780  38
2781  38
2782  26
2783  36
2784  29
2785  29
2786  36
2787  28
2788  34
2789  28
2790  41
2791  30
2792  26
2793  30
2794  38
2795  36
2796  40
2797  24
2798  38
2799  33
2800  35
2801  35
2802  37
2803  31
2804  33
2805  36
2806  30
2807  37
2808  41
2809  28
2810  34
2811  26
2812  26
2813  38
2814  32
2815  34
2816  39
2817  39
2818  30
2819  34
2820  38
2821  39
2822  38
2823  42
2824  30
2825  35
2826  42
2827  37
2828  39
2829  40
2830  39
2831  38
2832  49
2833  51
2834  37
2835  58
2836  57
2837  60
2838  74
2839  65
2840  92
2841  88
2842  90
2843  89
2844  98
2845  92
2846  104
2847  88
2848  91
2849  73
2850  81
2851  96
2852  83
2853  66
2854  80
2855  70
2856  60
2857  69
2858  60
2859  47
2860  43
2861  48
2862  54
2863  43
2864  41
2865  33
2866  30
2867  44
2868  32
2869  30
2870  27
2871  31
2872  29
2873  32
2874  36
2875  28
2876  35
2877  26
2878  35
2879  18
2880  39
2881  25
2882  38
2883  40
2884  26
2885  26
2886  34
2887  35
2888  38
2889  31
2890  34
2891  30
2892  23
2893  32
2894  32
2895  32
2896  27
2897  44
2898  38
2899  41
2900  36
2901  33
2902  37
2903  38
2904  43
2905  34
2906  17
2907  37
2908  37
2909  29
2910  33
2911  35
2912  37
2913  26
2914  28
2915  34
2916  28
2917  41
2918  34
2919  40
2920  33
2921  40
2922  43
2923  38
2924  40
2925  39
2926  53
2927  49
2928  51
2929  57
2930  48
2931  55
2932  62
2933  57
2934  51
2935  64
2936  63
2937  64
2938  71
2939  53
2940  63
2941  62
2942  60
2943  66
2944  62
2945  37
2946  33
2947  43
2948  35
2949  31
2950  39
2951  46
2952  30
2953  46
2954  47
2955  31
2956  48
2957  44
2958  39
2959  61
2960  61
2961  70
2962  71
2963  70
2964  87
2965  87
2966  115
2967  111
2968  115
2969  92
2970  107
2971  93
2972  90
2973  74
2974  85
2975  82
2976  90
2977  77
2978  71
2979  79
2980  56
2981  66
2982  57
2983  48
2984  42
2985  41
2986  42
2987  39
2988  33
2989  23
2990  30
2991  28
2992  35
2993  25
2994  31
2995  27
2996  28
2997  25
2998  25
2999  30
3000  33
3001  27
3002  34
3003  37
3004  37
3005  34
3006  40
3007  38
3008  37
3009  30
3010  29
3011  18
3012  26
3013  26
3014  31
3015  24
3016  25
3017  22
3018  33
3019  41
3020  24
3021  26
3022  29
3023  31
3024  29
3025  30
3026  27
3027  32
3028  35
3029  29
3030  36
3031  30
3032  20
3033  29
3034  28
3035  33
3036  34
3037  31
3038  39
3039  28
3040  32
3041  30
3042  35
3043  27
3044  39
3045  27
3046  12
3047  33
3048  38
3049  26
3050  24
3051  24
3052  21
3053  30
3054  23
3055  26
3056  33
3057  26
3058  21
3059  34
3060  23
3061  24
3062  33
3063  29
3064  21
3065  34
3066  19
3067  24
3068  31
3069  31
3070  31
3071  29
3072  30
3073  37
3074  35
3075  29
3076  25
3077  27
3078  30
3079  29
3080  30
3081  28
3082  30
3083  33
3084  34
3085  33
3086  22
3087  24
3088  23
3089  35
3090  19
3091  30
3092  29
3093  29
3094  32
3095  23
3096  23
3097  25
3098  24
3099  30
3100  23
3101  36
3102  31
3103  37
3104  24
3105  23
3106  29
3107  31
3108  26
3109  29
3110  22
3111  39
3112  34
3113  27
3114  19
3115  32
3116  29
3117  22
3118  20
3119  24
3120  36
3121  40
3122  38
3123  27
3124  29
3125  26
3126  31
3127  29
3128  27
3129  31
3130  31
3131  31
3132  21
3133  25
3134  31
3135  32
3136  29
3137  32
3138  29
3139  26
3140  26
3141  22
3142  21
3143  33
3144  40
3145  28
3146  23
3147  35
3148  30
3149  36
3150  27
3151  27
3152  28
3153  33
3154  26
3155  23
3156  25
3157  20
3158  22
3159  27
3160  28
3161  30
3162  28
3163  34
3164  41
3165  21
3166  23
3167  35
3168  37
3169  28
3170  28
3171  32
3172  31
3173  29
3174  28
3175  17
3176  27
3177  26
3178  33
3179  31
3180  25
3181  32
3182  34
3183  29
3184  29
3185  34
3186  32
3187  33
3188  28
3189  33
3190  25
3191  32
3192  29
3193  27
3194  26
3195  34
3196  27
3197  29
3198  37
3199  24
3200  29
3201  28
3202  34
3203  18
3204  33
3205  27
3206  28
3207  38
3208  29
3209  21
3210  35
3211  29
3212  31
3213  26
3214  28
3215  24
3216  22
3217  32
3218  32
3219  31
3220  30
3221  30
3222  30
3223  25
3224  31
3225  27
3226  32
3227  26
3228  32
3229  34
3230  25
3231  29
3232  36
3233  33
3234  25
3235  39
3236  23
3237  29
3238  32
3239  26
3240  27
3241  25
3242  30
3243  17
3244  45
3245  20
3246  24
3247  28
3248  32
3249  33
3250  30
3251  26
3252  24
3253  31
3254  23
3255  34
3256  21
3257  31
3258  29
3259  34
3260  26
3261  26
3262  31
3263  27
3264  26
3265  33
3266  31
3267  36
3268  28
3269  31
3270  23
3271  34
3272  22
3273  24
3274  32
3275  29
3276  30
3277  18
3278  23
3279  28
3280  28
3281  19
3282  30
3283  16
3284  21
3285  30
3286  24
3287  27
3288  26
3289  27
3290  30
3291  21
3292  21
3293  23
3294  34
3295  29
3296  28
3297  22
3298  39
3299  31
3300  23
3301  30
3302  31
3303  29
3304  32
3305  31
3306  32
3307  14
3308  20
3309  26
3310  31
3311  29
3312  35
3313  25
3314  28
3315  27
3316  41
3317  40
3318  17
3319  19
3320  37
3321  23
3322  26
3323  31
3324  26
3325  20
3326  31
3327  28
3328  25
3329  27
3330  31
3331  19
3332  30
3333  27
3334  21
3335  23
3336  31
3337  27
3338  32
3339  25
3340  34
3341  24
3342  20
3343  35
3344  28
3345  21
3346  25
3347  37
3348  27
3349  30
3350  24
3351  30
3352  34
3353  32
3354  26
3355  26
3356  31
3357  35
3358  26
3359  31
3360  33
3361  22
3362  26
3363  32
3364  24
3365  32
3366  29
3367  21
3368  30
3369  33
3370  14
3371  37
3372  27
3373  36
3374  26
3375  33
3376  46
3377  27
3378  26
3379  30
3380  21
3381  22
3382  34
3383  37
3384  31
3385  19
3386  26
3387  27
3388  20
3389  27
3390  37
3391  30
3392  33
3393  26
3394  15
3395  22
3396  37
3397  34
3398  30
3399  32
3400  26
3401  42
3402  31
3403  27
3404  34
3405  35
3406  23
3407  25
3408  34
3409  23
3410  17
3411  30
3412  20
3413  27
3414  22
3415  16
3416  21
3417  12
3418  15
3419  17
3420  17
3421  10
3422  10
3423  8
3424  9
3425  3
3426  5
3427  4
3428  0
3429  0
3430  0
3431  0
3432  0
3433  0
3434  0
3435  0
3436  0
3437  0
3438  0
3439  0
3440  0
3441  0
3442  0
3443  0
3444  0
3445  0
3446  0
3447  0
3448  0
3449  0
3450  0
3451  0
3452  0
3453  0
3454  0
3455  0
3456  0
3457  0
3458  0
3459  0
3460  0
3461  0
3462  0
3463  0
3464  0
3465  0
3466  0
3467  0
3468  0
3469  0
3470  0
3471  0
3472  0
3473  0
3474  0
3475  0
3476  0
3477  0
3478  0
3479  0
3480  0
3481  0
3482  0
3483  0
3484  0
3485  0
3486  0
3487  0
3488  0
3489  0
3490  0
3491  0
3492  0
3493  0
3494  0
3495  0
3496  0
3497  0
3498  0
3499  0
3500  0
3501  0
3502  0
3503  0
3504  1
3505  0
3506  0
3507  0
3508  0
3509  0
3510  0
3511  0
3512  0
3513  0
3514  0
3515  0
3516  0
3517  0
3518  0
3519  0
3520  0
3521  0
3522  0
3523  0
3524  0
3525  0
3526  0
3527  0
3528  0
3529  0
3530  0
3531  0
3532  0
3533  0
3534  0
3535  0
3536  0
3537  0
3538  0
3539  0
3540  0
3541  0
3542  0
3543  0
3544  0
3545  0
3546  0
3547  0
3548  0
3549  0
3550  0
3551  0
3552  0
3553  0
3554  0
3555  0
3556  0
3557  0
3558  0
3559  0
3560  0
3561  0
3562  0
3563  0
3564  0
3565  0
3566  0
3567  0
3568  0
3569  0
3570  0
3571  0
3572  0
3573  0
3574  0
3575  0
3576  0
3577  0
3578  0
3579  0
3580  0
3581  0
3582  0
3583  0
3584  0
3585  0
3586  0
3587  0
3588  0
3589  0
3590  0
3591  0
3592  0
3593  0
3594  0
3595  0
3596  0
3597  0
3598  0
3599  0
3600  0
3601  0
3602  0
3603  0
3604  0
3605  0
3606  0
3607  0
3608  0
3609  0
3610  0
3611  0
3612  0
3613  0
3614  0
3615  0
3616  0
3617  0
3618  0
3619  0
3620  0
3621  0
3622  0
3623  0
3624  0
3625  0
3626  0
3627  0
3628  0
3629  0
3630  0
3631  0
3632  0
3633  0
3634  0
3635  0
3636  0
3637  0
3638  0
3639  0
3640  0
3641  0
3642  0
3643  0
3644  0
3645  0
3646  0
3647  0
3648  0
3649  0
3650  0
3651  0
3652  0
3653  0
3654  0
3655  0
3656  0
3657  0
3658  0
3659  0
3660  0
3661  0
3662  0
3663  0
3664  0
3665  0
3666  0
3667  0
3668  0
3669  0
3670  0
3671  1
3672  0
3673  0
3674  0
3675  0
3676  0
3677  0
3678  0
3679  0
3680  0
3681  0
3682  0
3683  0
3684  0
3685  0
3686  0
3687  0
3688  0
3689  0
3690  0
3691  0
3692  0
3693  0
3694  0
3695  0
3696  0
3697  0
3698  0
3699  0
3700  0
3701  0
3702  0
3703  0
3704  0
3705  0
3706  0
3707  0
3708  0
3709  0
3710  0
3711  0
3712  0
3713  0
3714  0
3715  0
3716  0
3717  0
3718  0
3719  0
3720  0
3721  0
3722  0
3723  0
3724  0
3725  0
3726  0
3727  0
3728  0
3729  0
3730  0
3731  0
3732  0
3733  0
3734  0
3735  0
3736  0
3737  0
3738  0
3739  0
3740  0
3741  0
3742  0
3743  0
3744  0
3745  0
3746  0
3747  0
3748  0
3749  0
3750  0
3751  0
3752  0
3753  0
3754  0
3755  0
3756  0
3757  0
3758  0
3759  0
3760  0
3761  0
3762  0
3763  0
3764  0
3765  0
3766  0
3767  0
3768  0
3769  0
3770  0
3771  0
3772  0
3773  0
3774  0
3775  0
3776  0
3777  0
3778  0
3779  0
3780  0
3781  0
3782  0
3783  0
3784  0
3785  0
3786  0
3787  0
3788  0
3789  0
3790  0
3791  0
3792  0
3793  0
3794  0
3795  0
3796  0
3797  0
3798  0
3799  0
3800  0
3801  0
3802  0
3803  0
3804  0
3805  0
3806  0
3807  0
3808  0
3809  0
3810  0
3811  0
3812  0
3813  0
3814  0
3815  0
3816  0
3817  0
3818  0
3819  0
3820  0
3821  0
3822  0
3823  0
3824  0
3825  0
3826  0
3827  0
3828  0
3829  0
3830  0
3831  0
3832  0
3833  0
3834  0
3835  0
3836  0
3837  0
3838  0
3839  0
3840  0
3841  0
3842  0
3843  0
3844  0
3845  0
3846  0
3847  0
3848  0
3849  0
3850  0
3851  0
3852  0
3853  0
3854  0
3855  0
3856  0
3857  0
3858  0
3859  0
3860  0
3861  0
3862  0
3863  0
3864  0
3865  0
3866  0
3867  0
3868  0
3869  0
3870  0
3871  0
3872  0
3873  0
3874  0
3875  0
3876  0
3877  0
3878  0
3879  0
3880  0
3881  0
3882  0
3883  0
3884  0
3885  0
3886  0
3887  0
3888  0
3889  0
3890  0
3891  0
3892  0
3893  0
3894  0
3895  0
3896  0
3897  0
3898  0
3899  0
3900  0
3901  0
3902  0
3903  0
3904  0
3905  0
3906  0
3907  0
3908  0
3909  0
3910  0
3911  0
3912  0
3913  0
3914  0
3915  0
3916  0
3917  0
3918  0
3919  0
3920  0
3921  0
3922  0
3923  0
3924  0
3925  0
3926  0
3927  0
3928  0
3929  0
3930  0
3931  0
3932  0
3933  0
3934  0
3935  0
3936  0
3937  0
3938  0
3939  0
3940  0
3941  0
3942  0
3943  0
3944  0
3945  0
3946  0
3947  0
3948  0
3949  0
3950  0
3951  0
3952  0
3953  0
3954  0
3955  0
3956  0
3957  0
3958  0
3959  0
3960  0
3961  0
3962  0
3963  0
3964  0
3965  0
3966  0
3967  0
3968  0
3969  0
3970  0
3971  0
3972  0
3973  0
3974  0
3975  0
3976  0
3977  0
3978  0
3979  0
3980  0
3981  0
3982  0
3983  0
3984  0
3985  0
3986  0
3987  0
3988  0
3989  0
3990  0
3991  0
3992  0
3993  0
3994  0
3995  0
3996  0
3997  0
3998  0
3999  0
4000  0
4001  0
4002  0
4003  0
4004  0
4005  0
4006  0
4007  0
4008  0
4009  0
4010  0
4011  0
4012  0
4013  0
4014  0
4015  0
4016  0
4017  0
4018  0
4019  0
4020  0
4021  0
4022  0
4023  0
4024  0
4025  0
4026  0
4027  0
4028  0
4029  0
4030  0
4031  0
4032  0
4033  0
4034  0
4035  0
4036  0
4037  0
4038  0
4039  0
4040  0
4041  0
4042  0
4043  0
4044  0
4045  0
4046  0
4047  0
4048  0
4049  0
4050  0
4051  0
4052  0
4053  0
4054  0
4055  0
4056  0
4057  0
4058  0
4059  0
4060  0
4061  0
4062  0
4063  0
4064  0
4065  0
4066  0
4067  0
4068  0
4069  0
4070  0
4071  0
4072  0
4073  0
4074  0
4075  0
4076  0
4077  0
4078  0
4079  0
4080  0
4081  0
4082  0
4083  0
4084  0
4085  0
4086  0
4087  0
4088  0
4089  0
4090  0
4091  0
4092  0
4093  0
4094  0
4095  0
