0  0
1  0
2  0
3  0
4  0
5  0
6  0
7  0
8  0
9  0
10  0
11  0
12  0
13  0
14  2
15  50
16  201
17  185
18  72
19  15
20  7
21  5
22  1
23  1
24  0
25  0
26  0
27  0
28  1
29  1
30  2
31  0
32  1
33  2
34  2
35  0
36  2
37  0
38  2
39  2
40  0
41  1
42  0
43  1
44  0
45  0
46  1
47  0
48  0
49  0
50  0
51  0
52  0
53  0
54  0
55  0
56  0
57  0
58  0
59  0
60  0
61  0
62  0
63  0
64  0
65  0
66  0
67  0
68  0
69  0
70  0
71  0
72  0
73  0
74  0
75  0
76  0
77  0
78  0
79  0
80  0
81  0
82  0
83  0
84  0
85  0
86  0
87  0
88  0
89  0
90  0
91  0
92  0
93  0
94  0
95  0
96  0
97  0
98  0
99  0
100  0
101  0
102  0
103  0
104  0
105  0
106  0
107  0
108  0
109  0
110  0
111  0
112  0
113  0
114  0
115  0
116  0
117  0
118  0
119  0
120  0
121  0
122  0
123  0
124  0
125  0
126  0
127  0
128  0
129  0
130  0
131  0
132  0
133  0
134  0
135  0
136  0
137  0
138  0
139  0
140  0
141  0
142  0
143  0
144  0
145  0
146  0
147  0
148  0
149  0
150  0
151  0
152  0
153  0
154  0
155  0
156  0
157  0
158  0
159  0
160  0
161  0
162  0
163  0
164  0
165  0
166  0
167  0
168  0
169  0
170  0
171  0
172  0
173  0
174  0
175  0
176  0
177  0
178  0
179  0
180  0
181  5
182  34
183  90
184  181
185  197
186  219
187  150
188  82
189  52
190  27
191  21
192  13
193  18
194  20
195  6
196  8
197  10
198  11
199  11
200  13
201  10
202  11
203  10
204  11
205  9
206  9
207  11
208  9
209  7
210  15
211  6
212  14
213  8
214  8
215  6
216  8
217  15
218  6
219  12
220  10
221  20
222  8
223  12
224  8
225  5
226  9
227  12
228  7
229  11
230  9
231  9
232  8
233  5
234  9
235  10
236  7
237  8
238  9
239  10
240  14
241  11
242  11
243  10
244  9
245  9
246  6
247  3
248  11
249  11
250  8
251  13
252  4
253  9
254  7
255  10
256  16
257  7
258  11
259  12
260  12
261  6
262  10
263  6
264  8
265  7
266  15
267  6
268  8
269  4
270  13
271  12
272  6
273  4
274  9
275  16
276  9
277  9
278  11
279  9
280  12
281  6
282  10
283  9
284  9
285  7
286  14
287  8
288  10
289  9
290  14
291  8
292  4
293  10
294  13
295  7
296  6
297  10
298  14
299  8
300  10
301  7
302  10
303  7
304  8
305  8
306  10
307  7
308  9
309  12
310  16
311  11
312  13
313  9
314  11
315  7
316  12
317  12
318  9
319  10
320  5
321  5
322  11
323  9
324  14
325  7
326  10
327  8
328  13
329  13
330  10
331  10
332  8
333  10
334  11
335  10
336  6
337  10
338  12
339  9
340  14
341  7
342  8
343  7
344  12
345  9
346  5
347  9
348  4
349  12
350  7
351  10
352  10
353  3
354  7
355  7
356  11
357  10
358  5
359  12
360  8
361  8
362  5
363  10
364  9
365  7
366  8
367  6
368  7
369  7
370  9
371  8
372  8
373  9
374  6
375  8
376  6
377  6
378  6
379  6
380  10
381  10
382  8
383  7
384  11
385  14
386  7
387  12
388  8
389  8
390  7
391  13
392  9
393  12
394  9
395  9
396  5
397  12
398  9
399  8
400  10
401  8
402  10
403  6
404  8
405  8
406  8
407  10
408  9
409  9
410  5
411  14
412  6
413  12
414  7
415  22
416  9
417  8
418  12
419  6
420  8
421  7
422  6
423  8
424  13
425  6
426  8
427  13
428  8
429  8
430  13
431  9
432  5
433  7
434  2
435  12
436  11
437  13
438  10
439  11
440  13
441  9
442  2
443  17
444  9
445  7
446  10
447  10
448  11
449  12
450  15
451  11
452  9
453  12
454  11
455  13
456  12
457  14
458  7
459  4
460  9
461  4
462  7
463  7
464  10
465  9
466  4
467  10
468  9
469  13
470  11
471  9
472  10
473  12
474  10
475  4
476  13
477  7
478  10
479  13
480  9
481  10
482  8
483  10
484  7
485  10
486  9
487  14
488  17
489  9
490  11
491  15
492  8
493  10
494  11
495  10
496  12
497  6
498  11
499  8
500  7
501  13
502  13
503  7
504  12
505  9
506  8
507  9
508  4
509  6
510  7
511  15
512  6
513  9
514  11
515  17
516  11
517  9
518  10
519  10
520  9
521  10
522  7
523  7
524  13
525  6
526  14
527  11
528  6
529  10
530  9
531  5
532  7
533  9
534  6
535  12
536  12
537  14
538  13
539  12
540  6
541  9
542  7
543  14
544  9
545  8
546  7
547  15
548  14
549  8
550  8
551  9
552  17
553  10
554  4
555  6
556  7
557  7
558  4
559  8
560  6
561  14
562  12
563  11
564  11
565  8
566  9
567  5
568  13
569  14
570  11
571  3
572  5
573  7
574  9
575  8
576  11
577  14
578  10
579  2
580  7
581  12
582  5
583  11
584  10
585  10
586  7
587  10
588  7
589  9
590  8
591  8
592  7
593  6
594  8
595  8
596  7
597  13
598  4
599  11
600  9
601  6
602  7
603  9
604  8
605  9
606  10
607  10
608  10
609  5
610  7
611  13
612  12
613  6
614  5
615  6
616  14
617  10
618  10
619  14
620  8
621  7
622  12
623  7
624  10
625  5
626  9
627  11
628  8
629  8
630  11
631  16
632  10
633  7
634  9
635  10
636  9
637  11
638  7
639  16
640  7
641  6
642  7
643  13
644  10
645  8
646  8
647  7
648  13
649  12
650  14
651  17
652  11
653  9
654  10
655  8
656  7
657  9
658  10
659  12
660  6
661  9
662  14
663  10
664  10
665  10
666  4
667  8
668  8
669  10
670  8
671  12
672  9
673  4
674  8
675  17
676  12
677  9
678  7
679  9
680  13
681  14
682  9
683  8
684  6
685  8
686  8
687  11
688  12
689  9
690  6
691  9
692  12
693  15
694  7
695  8
696  6
697  9
698  11
699  8
700  9
701  10
702  7
703  10
704  7
705  6
706  10
707  12
708  4
709  5
710  9
711  11
712  13
713  12
714  8
715  10
716  11
717  7
718  6
719  6
720  12
721  11
722  8
723  3
724  6
725  12
726  11
727  7
728  8
729  8
730  7
731  7
732  10
733  4
734  4
735  8
736  7
737  6
738  6
739  9
740  5
741  6
742  7
743  10
744  11
745  8
746  12
747  8
748  9
749  12
750  15
751  11
752  8
753  13
754  5
755  4
756  13
757  7
758  10
759  9
760  9
761  7
762  10
763  10
764  4
765  13
766  4
767  9
768  5
769  8
770  9
771  12
772  9
773  9
774  11
775  10
776  10
777  3
778  12
779  9
780  10
781  7
782  9
783  10
784  8
785  14
786  9
787  8
788  4
789  8
790  9
791  5
792  14
793  7
794  12
795  7
796  10
797  6
798  10
799  7
800  12
801  11
802  9
803  16
804  10
805  7
806  12
807  5
808  9
809  4
810  12
811  8
812  5
813  7
814  10
815  12
816  8
817  6
818  12
819  16
820  7
821  13
822  6
823  8
824  10
825  9
826  6
827  12
828  9
829  5
830  7
831  11
832  5
833  12
834  8
835  12
836  6
837  1
838  10
839  8
840  7
841  10
842  6
843  11
844  7
845  10
846  7
847  11
848  12
849  12
850  9
851  11
852  7
853  11
854  5
855  4
856  12
857  4
858  7
859  9
860  13
861  9
862  12
863  7
864  6
865  10
866  11
867  11
868  9
869  9
870  9
871  4
872  10
873  8
874  9
875  9
876  8
877  6
878  8
879  11
880  7
881  11
882  13
883  9
884  8
885  9
886  7
887  8
888  12
889  6
890  7
891  14
892  16
893  11
894  8
895  8
896  5
897  6
898  8
899  7
900  17
901  8
902  8
903  12
904  14
905  11
906  7
907  11
908  8
909  13
910  9
911  15
912  11
913  15
914  9
915  5
916  10
917  5
918  9
919  8
920  8
921  11
922  12
923  7
924  7
925  14
926  7
927  7
928  9
929  5
930  4
931  5
932  8
933  9
934  10
935  8
936  9
937  5
938  9
939  12
940  10
941  8
942  9
943  5
944  9
945  9
946  8
947  11
948  12
949  8
950  8
951  10
952  10
953  6
954  12
955  12
956  11
957  8
958  7
959  9
960  13
961  8
962  11
963  8
964  10
965  11
966  8
967  9
968  14
969  8
970  8
971  7
972  11
973  9
974  13
975  12
976  10
977  14
978  15
979  11
980  9
981  9
982  5
983  11
984  7
985  6
986  10
987  7
988  10
989  8
990  7
991  4
992  10
993  12
994  9
995  8
996  10
997  9
998  9
999  13
1000  7
1001  9
1002  8
1003  8
1004  9
1005  12
1006  8
1007  11
1008  10
1009  7
1010  11
1011  9
1012  14
1013  11
1014  13
1015  10
1016  11
1017  9
1018  7
1019  8
1020  5
1021  12
1022  6
1023  9
1024  10
1025  6
1026  5
1027  13
1028  5
1029  6
1030  6
1031  7
1032  11
1033  7
1034  8
1035  7
1036  1
1037  9
1038  11
1039  9
1040  10
1041  10
1042  10
1043  8
1044  6
1045  7
1046  13
1047  8
1048  6
1049  8
1050  10
1051  7
1052  10
1053  13
1054  8
1055  10
1056  9
1057  7
1058  15
1059  10
1060  10
1061  8
1062  4
1063  15
1064  8
1065  10
1066  16
1067  15
1068  11
1069  18
1070  6
1071  7
1072  8
1073  10
1074  10
1075  9
1076  8
1077  12
1078  8
1079  9
1080  11
1081  9
1082  8
1083  12
1084  6
1085  8
1086  8
1087  17
1088  8
1089  8
1090  7
1091  10
1092  11
1093  12
1094  12
1095  15
1096  6
1097  10
1098  5
1099  7
1100  6
1101  10
1102  4
1103  11
1104  11
1105  8
1106  4
1107  4
1108  9
1109  4
1110  8
1111  9
1112  6
1113  11
1114  9
1115  3
1116  9
1117  8
1118  12
1119  7
1120  12
1121  10
1122  5
1123  13
1124  13
1125  8
1126  10
1127  7
1128  9
1129  10
1130  7
1131  8
1132  5
1133  9
1134  7
1135  15
1136  14
1137  9
1138  5
1139  21
1140  4
1141  12
1142  10
1143  9
1144  6
1145  5
1146  11
1147  16
1148  13
1149  11
1150  12
1151  7
1152  9
1153  11
1154  5
1155  9
1156  9
1157  9
1158  10
1159  5
1160  12
1161  13
1162  9
1163  12
1164  2
1165  18
1166  13
1167  4
1168  15
1169  10
1170  10
1171  4
1172  12
1173  11
1174  8
1175  12
1176  17
1177  15
1178  15
1179  6
1180  8
1181  8
1182  13
1183  7
1184  8
1185  14
1186  6
1187  19
1188  11
1189  10
1190  6
1191  15
1192  9
1193  12
1194  10
1195  11
1196  7
1197  8
1198  11
1199  7
1200  10
1201  7
1202  6
1203  7
1204  10
1205  10
1206  11
1207  9
1208  11
1209  11
1210  9
1211  7
1212  8
1213  8
1214  5
1215  17
1216  11
1217  7
1218  3
1219  6
1220  14
1221  4
1222  14
1223  12
1224  9
1225  11
1226  10
1227  15
1228  12
1229  11
1230  10
1231  9
1232  8
1233  12
1234  8
1235  6
1236  7
1237  15
1238  11
1239  6
1240  8
1241  10
1242  6
1243  8
1244  11
1245  8
1246  12
1247  11
1248  7
1249  12
1250  3
1251  15
1252  13
1253  9
1254  8
1255  5
1256  9
1257  8
1258  7
1259  7
1260  5
1261  7
1262  9
1263  4
1264  11
1265  9
1266  12
1267  3
1268  8
1269  10
1270  12
1271  8
1272  8
1273  8
1274  13
1275  8
1276  7
1277  7
1278  14
1279  12
1280  13
1281  4
1282  9
1283  13
1284  9
1285  12
1286  5
1287  8
1288  10
1289  10
1290  8
1291  10
1292  9
1293  3
1294  13
1295  14
1296  14
1297  5
1298  12
1299  13
1300  4
1301  8
1302  13
1303  9
1304  8
1305  11
1306  12
1307  12
1308  8
1309  8
1310  7
1311  8
1312  13
1313  10
1314  9
1315  9
1316  10
1317  4
1318  12
1319  8
1320  10
1321  10
1322  11
1323  15
1324  10
1325  12
1326  8
1327  11
1328  6
1329  9
1330  11
1331  8
1332  6
1333  4
1334  17
1335  14
1336  11
1337  5
1338  9
1339  7
1340  10
1341  13
1342  10
1343  5
1344  11
1345  3
1346  6
1347  12
1348  11
1349  12
1350  11
1351  9
1352  5
1353  10
1354  14
1355  8
1356  7
1357  13
1358  8
1359  6
1360  7
1361  9
1362  12
1363  4
1364  10
1365  12
1366  9
1367  12
1368  8
1369  6
1370  8
1371  10
1372  7
1373  11
1374  9
1375  8
1376  8
1377  7
1378  6
1379  6
1380  12
1381  13
1382  13
1383  10
1384  7
1385  10
1386  9
1387  17
1388  9
1389  12
1390  13
1391  13
1392  13
1393  15
1394  7
1395  14
1396  8
1397  11
1398  11
1399  12
1400  11
1401  2
1402  13
1403  11
1404  6
1405  7
1406  8
1407  5
1408  8
1409  12
1410  12
1411  5
1412  12
1413  19
1414  10
1415  13
1416  9
1417  7
1418  13
1419  5
1420  10
1421  8
1422  6
1423  2
1424  10
1425  6
1426  14
1427  10
1428  8
1429  10
1430  11
1431  8
1432  5
1433  7
1434  11
1435  10
1436  12
1437  13
1438  10
1439  14
1440  6
1441  12
1442  17
1443  6
1444  14
1445  8
1446  7
1447  7
1448  12
1449  8
1450  8
1451  8
1452  11
1453  9
1454  15
1455  6
1456  4
1457  7
1458  11
1459  9
1460  6
1461  9
1462  6
1463  6
1464  12
1465  6
1466  2
1467  9
1468  9
1469  2
1470  4
1471  8
1472  8
1473  12
1474  9
1475  16
1476  5
1477  16
1478  7
1479  9
1480  10
1481  7
1482  14
1483  11
1484  13
1485  10
1486  16
1487  10
1488  6
1489  6
1490  12
1491  5
1492  7
1493  7
1494  14
1495  9
1496  8
1497  13
1498  12
1499  12
1500  7
1501  10
1502  10
1503  12
1504  14
1505  13
1506  9
1507  13
1508  14
1509  11
1510  11
1511  7
1512  12
1513  12
1514  15
1515  11
1516  8
1517  9
1518  10
1519  13
1520  6
1521  7
1522  7
1523  11
1524  9
1525  10
1526  13
1527  16
1528  9
1529  10
1530  7
1531  11
1532  11
1533  11
1534  14
1535  8
1536  11
1537  8
1538  10
1539  8
1540  13
1541  11
1542  12
1543  10
1544  3
1545  10
1546  10
1547  10
1548  10
1549  5
1550  11
1551  13
1552  11
1553  4
1554  8
1555  13
1556  8
1557  16
1558  10
1559  10
1560  7
1561  17
1562  13
1563  8
1564  14
1565  8
1566  11
1567  4
1568  11
1569  8
1570  10
1571  17
1572  11
1573  5
1574  10
1575  18
1576  10
1577  11
1578  13
1579  9
1580  7
1581  8
1582  10
1583  11
1584  12
1585  15
1586  12
1587  12
1588  8
1589  15
1590  15
1591  17
1592  17
1593  8
1594  16
1595  12
1596  9
1597  10
1598  8
1599  13
1600  15
1601  13
1602  9
1603  8
1604  14
1605  12
1606  9
1607  11
1608  9
1609  8
1610  14
1611  9
1612  13
1613  8
1614  10
1615  16
1616  10
1617  8
1618  9
1619  11
1620  14
1621  7
1622  13
1623  9
1624  7
1625  10
1626  7
1627  9
1628  9
1629  11
1630  4
1631  12
1632  2
1633  11
1634  8
1635  13
1636  7
1637  9
1638  15
1639  18
1640  14
1641  7
1642  10
1643  8
1644  11
1645  8
1646  10
1647  12
1648  9
1649  14
1650  10
1651  8
1652  13
1653  8
1654  14
1655  12
1656  16
1657  9
1658  4
1659  9
1660  6
1661  8
1662  17
1663  11
1664  8
1665  16
1666  7
1667  14
1668  5
1669  7
1670  9
1671  5
1672  10
1673  14
1674  10
1675  8
1676  7
1677  4
1678  10
1679  7
1680  8
1681  7
1682  6
1683  8
1684  19
1685  13
1686  7
1687  8
1688  10
1689  10
1690  8
1691  15
1692  9
1693  5
1694  10
1695  9
1696  12
1697  11
1698  9
1699  10
1700  11
1701  11
1702  11
1703  11
1704  7
1705  5
1706  12
1707  4
1708  7
1709  10
1710  10
1711  10
1712  6
1713  9
1714  7
1715  10
1716  10
1717  10
1718  6
1719  13
1720  9
1721  6
1722  13
1723  16
1724  9
1725  9
1726  13
1727  11
1728  11
1729  7
1730  9
1731  15
1732  10
1733  11
1734  4
1735  11
1736  4
1737  6
1738  4
1739  15
1740  10
1741  11
1742  7
1743  15
1744  7
1745  7
1746  13
1747  5
1748  11
1749  11
1750  6
1751  10
1752  13
1753  18
1754  10
1755  11
1756  12
1757  6
1758  9
1759  11
1760  11
1761  9
1762  10
1763  8
1764  12
1765  7
1766  11
1767  14
1768  15
1769  10
1770  10
1771  13
1772  12
1773  12
1774  15
1775  4
1776  15
1777  9
1778  11
1779  14
1780  7
1781  10
1782  14
1783  11
1784  10
1785  8
1786  10
1787  12
1788  7
1789  4
1790  7
1791  7
1792  7
1793  11
1794  11
1795  17
1796  15
1797  9
1798  6
1799  10
1800  22
1801  11
1802  19
1803  15
1804  6
1805  5
1806  13
1807  14
1808  9
1809  13
1810  7
1811  13
1812  10
1813  21
1814  7
1815  12
1816  13
1817  11
1818  13
1819  11
1820  10
1821  9
1822  15
1823  15
1824  8
1825  19
1826  17
1827  9
1828  17
1829  7
1830  11
1831  11
1832  15
1833  14
1834  23
1835  10
1836  7
1837  15
1838  9
1839  21
1840  9
1841  19
1842  19
1843  19
1844  13
1845  7
1846  15
1847  18
1848  13
1849  16
1850  15
1851  9
1852  13
1853  15
1854  22
1855  15
1856  11
1857  17
1858  16
1859  14
1860  9
1861  20
1862  18
1863  22
1864  11
1865  12
1866  15
1867  15
1868  14
1869  21
1870  13
1871  22
1872  14
1873  24
1874  25
1875  13
1876  20
1877  14
1878  17
1879  16
1880  15
1881  19
1882  13
1883  18
1884  22
1885  12
1886  11
1887  15
1888  20
1889  24
1890  16
1891  18
1892  24
1893  17
1894  16
1895  15
1896  12
1897  21
1898  17
1899  17
1900  16
1901  19
1902  17
1903  22
1904  21
1905  21
1906  15
1907  19
1908  25
1909  20
1910  20
1911  17
1912  24
1913  14
1914  31
1915  13
1916  20
1917  15
1918  20
1919  13
1920  23
1921  13
1922  21
1923  18
1924  19
1925  18
1926  12
1927  23
1928  13
1929  21
1930  13
1931  23
1932  18
1933  22
1934  22
1935  31
1936  12
1937  16
1938  13
1939  8
1940  22
1941  16
1942  16
1943  19
1944  18
1945  18
1946  22
1947  21
1948  21
1949  23
1950  18
1951  33
1952  17
1953  25
1954  20
1955  26
1956  16
1957  23
1958  33
1959  25
1960  30
1961  22
1962  26
1963  30
1964  20
1965  18
1966  18
1967  26
1968  22
1969  28
1970  16
1971  20
1972  26
1973  21
1974  22
1975  36
1976  27
1977  32
1978  31
1979  33
1980  32
1981  22
1982  24
1983  29
1984  33
1985  35
1986  32
1987  29
1988  27
1989  49
1990  32
1991  29
1992  30
1993  39
1994  28
1995  21
1996  37
1997  27
1998  32
1999  25
2000  35
2001  33
2002  33
2003  37
2004  27
2005  39
2006  41
2007  46
2008  41
2009  41
2010  37
2011  36
2012  40
2013  49
2014  38
2015  40
2016  48
2017  44
2018  42
2019  59
2020  54
2021  49
2022  44
2023  56
2024  43
2025  52
2026  54
2027  56
2028  57
2029  64
2030  52
2031  54
2032  64
2033  73
2034  64
2035  77
2036  70
2037  66
2038  74
2039  66
2040  85
2041  78
2042  95
2043  84
2044  74
2045  83
2046  70
2047  95
2048  76
2049  96
2050  103
2051  118
2052  97
2053  119
2054  106
2055  101
2056  106
2057  100
2058  122
2059  138
2060  142
2061  151
2062  138
2063  151
2064  188
2065  136
2066  188
2067  205
2068  172
2069  249
2070  252
2071  221
2072  249
2073  312
2074  329
2075  317
2076  335
2077  358
2078  377
2079  399
2080  382
2081  408
2082  390
2083  384
2084  421
2085  422
2086  404
2087  363
2088  361
2089  343
2090  363
2091  332
2092  298
2093  282
2094  278
2095  265
2096  201
2097  209
2098  167
2099  160
2100  118
2101  111
2102  87
2103  55
2104  53
2105  39
2106  27
2107  24
2108  21
2109  16
2110  13
2111  6
2112  14
2113  12
2114  6
2115  8
2116  10
2117  17
2118  12
2119  8
2120  11
2121  7
2122  10
2123  7
2124  7
2125  14
2126  9
2127  14
2128  9
2129  12
2130  6
2131  12
2132  4
2133  9
2134  11
2135  7
2136  7
2137  6
2138  8
2139  7
2140  4
2141  4
2142  5
2143  12
2144  13
2145  9
2146  8
2147  9
2148  6
2149  12
2150  8
2151  12
2152  8
2153  5
2154  11
2155  12
2156  7
2157  9
2158  8
2159  5
2160  8
2161  7
2162  5
2163  13
2164  11
2165  16
2166  8
2167  13
2168  8
2169  9
2170  7
2171  8
2172  9
2173  8
2174  9
2175  7
2176  5
2177  10
2178  16
2179  3
2180  5
2181  9
2182  10
2183  10
2184  12
2185  4
2186  12
2187  10
2188  8
2189  8
2190  9
2191  11
2192  17
2193  7
2194  9
2195  9
2196  9
2197  13
2198  11
2199  8
2200  4
2201  6
2202  9
2203  10
2204  13
2205  8
2206  9
2207  6
2208  4
2209  9
2210  9
2211  10
2212  6
2213  11
2214  10
2215  16
2216  11
2217  9
2218  9
2219  8
2220  10
2221  7
2222  11
2223  6
2224  12
2225  8
2226  6
2227  13
2228  15
2229  9
2230  14
2231  8
2232  9
2233  7
2234  15
2235  4
2236  9
2237  9
2238  9
2239  6
2240  9
2241  9
2242  9
2243  8
2244  10
2245  10
2246  3
2247  12
2248  7
2249  7
2250  7
2251  8
2252  6
2253  15
2254  6
2255  14
2256  11
2257  6
2258  9
2259  13
2260  6
2261  8
2262  11
2263  17
2264  9
2265  11
2266  8
2267  13
2268  10
2269  5
2270  16
2271  12
2272  17
2273  9
2274  11
2275  7
2276  10
2277  6
2278  5
2279  6
2280  10
2281  12
2282  9
2283  9
2284  7
2285  11
2286  11
2287  11
2288  16
2289  3
2290  8
2291  13
2292  11
2293  10
2294  7
2295  7
2296  12
2297  16
2298  5
2299  6
2300  13
2301  4
2302  9
2303  3
2304  12
2305  6
2306  7
2307  5
2308  7
2309  7
2310  9
2311  5
2312  13
2313  7
2314  5
2315  9
2316  5
2317  8
2318  12
2319  11
2320  10
2321  5
2322  14
2323  6
2324  14
2325  8
2326  4
2327  9
2328  9
2329  11
2330  8
2331  4
2332  8
2333  9
2334  5
2335  8
2336  6
2337  8
2338  6
2339  8
2340  10
2341  8
2342  10
2343  8
2344  7
2345  10
2346  10
2347  11
2348  8
2349  10
2350  7
2351  12
2352  9
2353  11
2354  4
2355  13
2356  11
2357  12
2358  9
2359  10
2360  13
2361  11
2362  11
2363  7
2364  14
2365  4
2366  12
2367  9
2368  11
2369  7
2370  8
2371  11
2372  12
2373  8
2374  6
2375  6
2376  17
2377  9
2378  4
2379  9
2380  10
2381  12
2382  6
2383  6
2384  11
2385  6
2386  14
2387  7
2388  11
2389  4
2390  6
2391  8
2392  10
2393  12
2394  8
2395  8
2396  7
2397  14
2398  9
2399  9
2400  8
2401  9
2402  7
2403  9
2404  13
2405  7
2406  10
2407  11
2408  14
2409  14
2410  10
2411  9
2412  10
2413  15
2414  7
2415  12
2416  7
2417  7
2418  9
2419  10
2420  9
2421  9
2422  7
2423  5
2424  13
2425  7
2426  3
2427  14
2428  9
2429  9
2430  8
2431  11
2432  5
2433  8
2434  10
2435  12
2436  10
2437  6
2438  7
2439  8
2440  6
2441  5
2442  10
2443  10
2444  14
2445  6
2446  10
2447  13
2448  8
2449  9
2450  7
2451  10
2452  10
2453  11
2454  10
2455  6
2456  9
2457  15
2458  12
2459  9
2460  8
2461  8
2462  6
2463  9
2464  10
2465  6
2466  10
2467  18
2468  7
2469  10
2470  12
2471  12
2472  6
2473  9
2474  9
2475  6
2476  8
2477  8
2478  14
2479  7
2480  4
2481  10
2482  6
2483  18
2484  9
2485  10
2486  6
2487  7
2488  12
2489  10
2490  9
2491  12
2492  9
2493  17
2494  8
2495  11
2496  11
2497  11
2498  12
2499  6
2500  4
2501  5
2502  12
2503  12
2504  4
2505  7
2506  7
2507  9
2508  5
2509  9
2510  11
2511  9
2512  9
2513  12
2514  8
2515  6
2516  9
2517  8
2518  3
2519  8
2520  9
2521  5
2522  9
2523  15
2524  10
2525  5
2526  4
2527  14
2528  13
2529  5
2530  12
2531  12
2532  2
2533  10
2534  8
2535  9
2536  10
2537  10
2538  6
2539  9
2540  12
2541  9
2542  7
2543  11
2544  2
2545  12
2546  10
2547  3
2548  14
2549  12
2550  11
2551  10
2552  7
2553  8
2554  7
2555  11
2556  6
2557  8
2558  11
2559  5
2560  7
2561  10
2562  10
2563  13
2564  9
2565  9
2566  4
2567  14
2568  2
2569  7
2570  10
2571  6
2572  13
2573  13
2574  7
2575  16
2576  12
2577  9
2578  6
2579  9
2580  3
2581  10
2582  10
2583  10
2584  6
2585  6
2586  7
2587  14
2588  7
2589  14
2590  7
2591  11
2592  6
2593  5
2594  11
2595  10
2596  11
2597  7
2598  11
2599  6
2600  9
2601  8
2602  9
2603  14
2604  9
2605  8
2606  6
2607  12
2608  5
2609  7
2610  7
2611  14
2612  6
2613  10
2614  10
2615  8
2616  10
2617  8
2618  9
2619  9
2620  6
2621  7
2622  6
2623  13
2624  7
2625  17
2626  14
2627  4
2628  11
2629  6
2630  9
2631  5
2632  13
2633  10
2634  7
2635  7
2636  7
2637  12
2638  4
2639  13
2640  7
2641  16
2642  11
2643  3
2644  10
2645  12
2646  9
2647  12
2648  8
2649  8
2650  13
2651  13
2652  8
2653  11
2654  10
2655  11
2656  8
2657  10
2658  13
2659  9
2660  10
2661  7
2662  10
2663  11
2664  8
2665  7
2666  7
2667  10
2668  5
2669  8
2670  9
2671  11
2672  8
2673  11
2674  9
2675  11
2676  15
2677  16
2678  6
2679  14
2680  8
2681  11
2682  5
2683  5
2684  7
2685  8
2686  9
2687  7
2688  6
2689  10
2690  10
2691  10
2692  9
2693  13
2694  10
2695  5
2696  12
2697  13
2698  12
2699  12
2700  11
2701  10
2702  11
2703  10
2704  2
2705  4
2706  7
2707  10
2708  14
2709  12
2710  8
2711  13
2712  7
2713  7
2714  9
2715  8
2716  12
2717  12
2718  7
2719  11
2720  11
2721  9
2722  13
2723  8
2724  12
2725  10
2726  10
2727  14
2728  10
2729  9
2730  10
2731  10
2732  10
2733  6
2734  14
2735  7
2736  10
2737  13
2738  14
2739  11
2740  8
2741  9
2742  6
2743  14
2744  7
2745  15
2746  12
2747  6
2748  10
2749  10
2750  6
2751  10
2752  9
2753  9
2754  5
2755  10
2756  8
2757  18
2758  6
2759  8
2760  12
2761  10
2762  8
2763  12
2764  8
2765  7
2766  8
2767  10
2768  6
2769  10
2770  10
2771  10
2772  10
2773  6
2774  10
2775  12
2776  10
2777  8
2778  8
2779  14
2780  7
2781  12
2782  9
2783  6
2784  7
2785  11
2786  11
2787  9
2788  4
2789  9
2790  15
2791  5
2792  4
2793  5
2794  10
2795  11
2796  12
2797  9
2798  13
2799  8
2800  10
2801  16
2802  13
2803  8
2804  8
2805  13
2806  7
2807  11
2808  10
2809  5
2810  7
2811  5
2812  8
2813  10
2814  11
2815  6
2816  7
2817  14
2818  4
2819  13
2820  10
2821  13
2822  9
2823  5
2824  7
2825  5
2826  7
2827  9
2828  12
2829  11
2830  12
2831  8
2832  7
2833  11
2834  8
2835  7
2836  10
2837  5
2838  11
2839  6
2840  8
2841  8
2842  14
2843  11
2844  11
2845  11
2846  7
2847  9
2848  10
2849  8
2850  11
2851  7
2852  7
2853  9
2854  11
2855  8
2856  9
2857  11
2858  17
2859  8
2860  5
2861  10
2862  13
2863  16
2864  7
2865  7
2866  13
2867  16
2868  9
2869  9
2870  11
2871  10
2872  10
2873  13
2874  9
2875  11
2876  7
2877  11
2878  17
2879  5
2880  14
2881  6
2882  15
2883  13
2884  10
2885  10
2886  12
2887  8
2888  12
2889  11
2890  6
2891  12
2892  5
2893  10
2894  13
2895  16
2896  6
2897  11
2898  7
2899  14
2900  14
2901  10
2902  8
2903  8
2904  16
2905  8
2906  5
2907  15
2908  7
2909  13
2910  11
2911  8
2912  14
2913  9
2914  10
2915  13
2916  12
2917  17
2918  12
2919  12
2920  12
2921  12
2922  14
2923  15
2924  22
2925  15
2926  24
2927  23
2928  27
2929  37
2930  28
2931  34
2932  31
2933  35
2934  34
2935  35
2936  33
2937  37
2938  34
2939  27
2940  38
2941  32
2942  28
2943  30
2944  27
2945  22
2946  19
2947  22
2948  14
2949  16
2950  16
2951  17
2952  10
2953  20
2954  8
2955  14
2956  7
2957  11
2958  7
2959  10
2960  11
2961  12
2962  14
2963  6
2964  9
2965  9
2966  13
2967  9
2968  12
2969  7
2970  11
2971  5
2972  8
2973  5
2974  5
2975  8
2976  17
2977  12
2978  12
2979  10
2980  12
2981  12
2982  8
2983  9
2984  6
2985  11
2986  10
2987  3
2988  9
2989  6
2990  12
2991  8
2992  12
2993  8
2994  11
2995  14
2996  14
2997  9
2998  4
2999  11
3000  6
3001  7
3002  13
3003  12
3004  12
3005  17
3006  17
3007  19
3008  12
3009  7
3010  15
3011  5
3012  10
3013  8
3014  13
3015  7
3016  9
3017  6
3018  4
3019  16
3020  11
3021  7
3022  14
3023  11
3024  8
3025  6
3026  11
3027  13
3028  9
3029  7
3030  16
3031  10
3032  8
3033  9
3034  10
3035  7
3036  12
3037  11
3038  15
3039  6
3040  14
3041  10
3042  13
3043  10
3044  11
3045  9
3046  4
3047  7
3048  22
3049  7
3050  9
3051  6
3052  7
3053  11
3054  5
3055  8
3056  14
3057  8
3058  4
3059  10
3060  7
3061  5
3062  15
3063  7
3064  8
3065  9
3066  8
3067  9
3068  7
3069  11
3070  14
3071  11
3072  12
3073  12
3074  15
3075  8
3076  4
3077  4
3078  10
3079  10
3080  6
3081  9
3082  14
3083  11
3084  7
3085  8
3086  9
3087  6
3088  6
3089  16
3090  5
3091  11
3092  7
3093  10
3094  9
3095  6
3096  5
3097  12
3098  7
3099  12
3100  10
3101  11
3102  9
3103  8
3104  2
3105  12
3106  13
3107  10
3108  10
3109  11
3110  9
3111  10
3112  10
3113  11
3114  9
3115  17
3116  5
3117  6
3118  8
3119  6
3120  11
3121  11
3122  11
3123  9
3124  5
3125  7
3126  3
3127  10
3128  8
3129  17
3130  7
3131  7
3132  10
3133  7
3134  8
3135  8
3136  11
3137  11
3138  7
3139  6
3140  11
3141  9
3142  9
3143  10
3144  9
3145  7
3146  7
3147  9
3148  8
3149  9
3150  11
3151  10
3152  6
3153  14
3154  8
3155  6
3156  6
3157  5
3158  6
3159  8
3160  6
3161  7
3162  9
3163  14
3164  14
3165  5
3166  8
3167  13
3168  10
3169  15
3170  10
3171  6
3172  12
3173  8
3174  11
3175  5
3176  8
3177  11
3178  9
3179  8
3180  6
3181  9
3182  12
3183  11
3184  8
3185  8
3186  11
3187  7
3188  9
3189  11
3190  7
3191  8
3192  7
3193  9
3194  8
3195  8
3196  7
3197  5
3198  16
3199  14
3200  12
3201  8
3202  11
3203  3
3204  13
3205  5
3206  7
3207  13
3208  12
3209  8
3210  16
3211  10
3212  14
3213  7
3214  5
3215  6
3216  8
3217  9
3218  14
3219  10
3220  13
3221  8
3222  14
3223  7
3224  11
3225  10
3226  12
3227  7
3228  10
3229  7
3230  6
3231  8
3232  12
3233  16
3234  4
3235  15
3236  6
3237  10
3238  12
3239  7
3240  11
3241  7
3242  10
3243  9
3244  17
3245  6
3246  8
3247  6
3248  10
3249  15
3250  11
3251  10
3252  7
3253  11
3254  10
3255  9
3256  8
3257  8
3258  9
3259  9
3260  10
3261  9
3262  8
3263  7
3264  7
3265  7
3266  9
3267  11
3268  12
3269  11
3270  6
3271  8
3272  5
3273  10
3274  5
3275  10
3276  11
3277  6
3278  6
3279  5
3280  11
3281  7
3282  10
3283  8
3284  3
3285  7
3286  7
3287  8
3288  7
3289  6
3290  12
3291  4
3292  7
3293  9
3294  8
3295  10
3296  9
3297  11
3298  11
3299  11
3300  7
3301  8
3302  11
3303  13
3304  8
3305  13
3306  8
3307  3
3308  8
3309  9
3310  7
3311  7
3312  14
3313  7
3314  11
3315  11
3316  12
3317  8
3318  6
3319  1
3320  17
3321  7
3322  7
3323  15
3324  8
3325  4
3326  12
3327  15
3328  7
3329  6
3330  9
3331  7
3332  10
3333  9
3334  6
3335  8
3336  6
3337  8
3338  9
3339  6
3340  18
3341  7
3342  7
3343  14
3344  8
3345  4
3346  10
3347  12
3348  12
3349  5
3350  9
3351  15
3352  9
3353  12
3354  7
3355  4
3356  10
3357  15
3358  11
3359  11
3360  8
3361  8
3362  4
3363  14
3364  6
3365  10
3366  8
3367  8
3368  8
3369  14
3370  6
3371  13
3372  12
3373  13
3374  7
3375  10
3376  12
3377  11
3378  8
3379  8
3380  9
3381  6
3382  15
3383  13
3384  13
3385  7
3386  10
3387  11
3388  5
3389  9
3390  7
3391  8
3392  10
3393  6
3394  5
3395  4
3396  7
3397  13
3398  8
3399  10
3400  5
3401  19
3402  10
3403  11
3404  10
3405  10
3406  10
3407  10
3408  13
3409  7
3410  5
3411  8
3412  7
3413  8
3414  10
3415  6
3416  12
3417  6
3418  6
3419  5
3420  6
3421  2
3422  2
3423  1
3424  1
3425  2
3426  3
3427  1
3428  0
3429  0
3430  0
3431  0
3432  0
3433  0
3434  0
3435  0
3436  0
3437  0
3438  0
3439  0
3440  0
3441  0
3442  0
3443  0
3444  0
3445  0
3446  0
3447  0
3448  0
3449  0
3450  0
3451  0
3452  0
3453  0
3454  0
3455  0
3456  0
3457  0
3458  0
3459  0
3460  0
3461  0
3462  0
3463  0
3464  0
3465  0
3466  0
3467  0
3468  0
3469  0
3470  0
3471  0
3472  0
3473  0
3474  0
3475  0
3476  0
3477  0
3478  0
3479  0
3480  0
3481  0
3482  0
3483  0
3484  0
3485  0
3486  0
3487  0
3488  0
3489  0
3490  0
3491  0
3492  0
3493  0
3494  0
3495  0
3496  0
3497  0
3498  0
3499  0
3500  0
3501  0
3502  0
3503  0
3504  0
3505  0
3506  0
3507  0
3508  0
3509  0
3510  0
3511  0
3512  0
3513  0
3514  0
3515  0
3516  0
3517  0
3518  0
3519  0
3520  0
3521  0
3522  0
3523  0
3524  0
3525  0
3526  0
3527  0
3528  0
3529  0
3530  0
3531  0
3532  0
3533  0
3534  0
3535  0
3536  0
3537  0
3538  0
3539  0
3540  0
3541  0
3542  0
3543  0
3544  0
3545  0
3546  0
3547  0
3548  0
3549  0
3550  0
3551  0
3552  0
3553  0
3554  0
3555  0
3556  0
3557  0
3558  0
3559  0
3560  0
3561  0
3562  0
3563  0
3564  0
3565  0
3566  0
3567  0
3568  0
3569  0
3570  0
3571  0
3572  0
3573  0
3574  0
3575  0
3576  0
3577  0
3578  0
3579  0
3580  0
3581  0
3582  0
3583  0
3584  0
3585  0
3586  0
3587  0
3588  0
3589  0
3590  0
3591  0
3592  0
3593  0
3594  0
3595  0
3596  0
3597  0
3598  0
3599  0
3600  0
3601  0
3602  0
3603  0
3604  0
3605  0
3606  0
3607  0
3608  0
3609  0
3610  0
3611  0
3612  0
3613  0
3614  0
3615  0
3616  0
3617  0
3618  0
3619  0
3620  0
3621  0
3622  0
3623  0
3624  0
3625  0
3626  0
3627  0
3628  0
3629  0
3630  0
3631  0
3632  0
3633  0
3634  0
3635  0
3636  0
3637  0
3638  0
3639  0
3640  0
3641  0
3642  0
3643  0
3644  0
3645  0
3646  0
3647  0
3648  0
3649  0
3650  0
3651  0
3652  0
3653  0
3654  0
3655  0
3656  0
3657  0
3658  0
3659  0
3660  0
3661  0
3662  0
3663  0
3664  0
3665  0
3666  0
3667  0
3668  0
3669  0
3670  0
3671  1
3672  0
3673  0
3674  0
3675  0
3676  0
3677  0
3678  0
3679  0
3680  0
3681  0
3682  0
3683  0
3684  0
3685  0
3686  0
3687  0
3688  0
3689  0
3690  0
3691  0
3692  0
3693  0
3694  0
3695  0
3696  0
3697  0
3698  0
3699  0
3700  0
3701  0
3702  0
3703  0
3704  0
3705  0
3706  0
3707  0
3708  0
3709  0
3710  0
3711  0
3712  0
3713  0
3714  0
3715  0
3716  0
3717  0
3718  0
3719  0
3720  0
3721  0
3722  0
3723  0
3724  0
3725  0
3726  0
3727  0
3728  0
3729  0
3730  0
3731  0
3732  0
3733  0
3734  0
3735  0
3736  0
3737  0
3738  0
3739  0
3740  0
3741  0
3742  0
3743  0
3744  0
3745  0
3746  0
3747  0
3748  0
3749  0
3750  0
3751  0
3752  0
3753  0
3754  0
3755  0
3756  0
3757  0
3758  0
3759  0
3760  0
3761  0
3762  0
3763  0
3764  0
3765  0
3766  0
3767  0
3768  0
3769  0
3770  0
3771  0
3772  0
3773  0
3774  0
3775  0
3776  0
3777  0
3778  0
3779  0
3780  0
3781  0
3782  0
3783  0
3784  0
3785  0
3786  0
3787  0
3788  0
3789  0
3790  0
3791  0
3792  0
3793  0
3794  0
3795  0
3796  0
3797  0
3798  0
3799  0
3800  0
3801  0
3802  0
3803  0
3804  0
3805  0
3806  0
3807  0
3808  0
3809  0
3810  0
3811  0
3812  0
3813  0
3814  0
3815  0
3816  0
3817  0
3818  0
3819  0
3820  0
3821  0
3822  0
3823  0
3824  0
3825  0
3826  0
3827  0
3828  0
3829  0
3830  0
3831  0
3832  0
3833  0
3834  0
3835  0
3836  0
3837  0
3838  0
3839  0
3840  0
3841  0
3842  0
3843  0
3844  0
3845  0
3846  0
3847  0
3848  0
3849  0
3850  0
3851  0
3852  0
3853  0
3854  0
3855  0
3856  0
3857  0
3858  0
3859  0
3860  0
3861  0
3862  0
3863  0
3864  0
3865  0
3866  0
3867  0
3868  0
3869  0
3870  0
3871  0
3872  0
3873  0
3874  0
3875  0
3876  0
3877  0
3878  0
3879  0
3880  0
3881  0
3882  0
3883  0
3884  0
3885  0
3886  0
3887  0
3888  0
3889  0
3890  0
3891  0
3892  0
3893  0
3894  0
3895  0
3896  0
3897  0
3898  0
3899  0
3900  0
3901  0
3902  0
3903  0
3904  0
3905  0
3906  0
3907  0
3908  0
3909  0
3910  0
3911  0
3912  0
3913  0
3914  0
3915  0
3916  0
3917  0
3918  0
3919  0
3920  0
3921  0
3922  0
3923  0
3924  0
3925  0
3926  0
3927  0
3928  0
3929  0
3930  0
3931  0
3932  0
3933  0
3934  0
3935  0
3936  0
3937  0
3938  0
3939  0
3940  0
3941  0
3942  0
3943  0
3944  0
3945  0
3946  0
3947  0
3948  0
3949  0
3950  0
3951  0
3952  0
3953  0
3954  0
3955  0
3956  0
3957  0
3958  0
3959  0
3960  0
3961  0
3962  0
3963  0
3964  0
3965  0
3966  0
3967  0
3968  0
3969  0
3970  0
3971  0
3972  0
3973  0
3974  0
3975  0
3976  0
3977  0
3978  0
3979  0
3980  0
3981  0
3982  0
3983  0
3984  0
3985  0
3986  0
3987  0
3988  0
3989  0
3990  0
3991  0
3992  0
3993  0
3994  0
3995  0
3996  0
3997  0
3998  0
3999  0
4000  0
4001  0
4002  0
4003  0
4004  0
4005  0
4006  0
4007  0
4008  0
4009  0
4010  0
4011  0
4012  0
4013  0
4014  0
4015  0
4016  0
4017  0
4018  0
4019  0
4020  0
4021  0
4022  0
4023  0
4024  0
4025  0
4026  0
4027  0
4028  0
4029  0
4030  0
4031  0
4032  0
4033  0
4034  0
4035  0
4036  0
4037  0
4038  0
4039  0
4040  0
4041  0
4042  0
4043  0
4044  0
4045  0
4046  0
4047  0
4048  0
4049  0
4050  0
4051  0
4052  0
4053  0
4054  0
4055  0
4056  0
4057  0
4058  0
4059  0
4060  0
4061  0
4062  0
4063  0
4064  0
4065  0
4066  0
4067  0
4068  0
4069  0
4070  0
4071  0
4072  0
4073  0
4074  0
4075  0
4076  0
4077  0
4078  0
4079  0
4080  0
4081  0
4082  0
4083  0
4084  0
4085  0
4086  0
4087  0
4088  0
4089  0
4090  0
4091  0
4092  0
4093  0
4094  0
4095  0
