0  0
1  0
2  0
3  0
4  0
5  0
6  0
7  0
8  0
9  0
10  0
11  0
12  0
13  0
14  0
15  0
16  0
17  0
18  0
19  0
20  0
21  0
22  0
23  0
24  0
25  0
26  0
27  0
28  0
29  0
30  0
31  0
32  0
33  0
34  0
35  0
36  0
37  0
38  0
39  0
40  0
41  0
42  0
43  0
44  0
45  0
46  0
47  0
48  0
49  0
50  0
51  0
52  0
53  0
54  0
55  0
56  0
57  0
58  0
59  0
60  0
61  0
62  0
63  0
64  0
65  0
66  0
67  0
68  0
69  0
70  0
71  0
72  0
73  0
74  0
75  0
76  0
77  0
78  0
79  0
80  0
81  0
82  0
83  0
84  0
85  0
86  0
87  0
88  0
89  0
90  0
91  0
92  0
93  0
94  0
95  0
96  0
97  0
98  0
99  0
100  0
101  0
102  0
103  0
104  0
105  0
106  0
107  0
108  0
109  0
110  0
111  0
112  0
113  0
114  0
115  0
116  0
117  0
118  0
119  0
120  0
121  0
122  0
123  0
124  0
125  0
126  0
127  0
128  0
129  0
130  0
131  0
132  0
133  0
134  0
135  0
136  0
137  0
138  0
139  0
140  0
141  0
142  0
143  0
144  0
145  0
146  0
147  0
148  0
149  0
150  0
151  0
152  0
153  0
154  0
155  0
156  0
157  0
158  0
159  0
160  0
161  0
162  0
163  0
164  1
165  0
166  1
167  0
168  0
169  0
170  1
171  0
172  1
173  1
174  1
175  1
176  2
177  1
178  6
179  4
180  5
181  3
182  2
183  5
184  6
185  2
186  4
187  6
188  4
189  6
190  6
191  4
192  4
193  5
194  2
195  4
196  1
197  5
198  5
199  1
200  4
201  8
202  2
203  7
204  19
205  13
206  23
207  41
208  70
209  107
210  195
211  223
212  301
213  418
214  506
215  639
216  753
217  846
218  919
219  981
220  1034
221  1064
222  1005
223  1023
224  992
225  981
226  962
227  952
228  963
229  999
230  979
231  975
232  952
233  865
234  882
235  952
236  921
237  914
238  895
239  869
240  984
241  948
242  962
243  956
244  952
245  1050
246  1050
247  1004
248  1055
249  1077
250  1121
251  1096
252  1087
253  1069
254  1014
255  996
256  989
257  1020
258  972
259  1011
260  1065
261  964
262  929
263  929
264  909
265  915
266  943
267  967
268  939
269  903
270  849
271  872
272  845
273  863
274  875
275  859
276  962
277  840
278  884
279  861
280  815
281  842
282  752
283  797
284  833
285  861
286  789
287  764
288  815
289  767
290  768
291  795
292  811
293  776
294  726
295  750
296  704
297  713
298  727
299  763
300  733
301  729
302  720
303  708
304  716
305  715
306  698
307  752
308  698
309  675
310  707
311  657
312  649
313  654
314  672
315  692
316  666
317  647
318  691
319  622
320  646
321  657
322  628
323  644
324  663
325  667
326  641
327  608
328  633
329  665
330  650
331  604
332  615
333  652
334  614
335  635
336  617
337  589
338  573
339  618
340  597
341  554
342  557
343  555
344  571
345  569
346  582
347  620
348  544
349  538
350  553
351  577
352  510
353  536
354  567
355  548
356  542
357  534
358  541
359  501
360  509
361  456
362  493
363  525
364  506
365  501
366  527
367  523
368  511
369  536
370  448
371  549
372  480
373  520
374  466
375  481
376  512
377  511
378  502
379  441
380  434
381  495
382  500
383  415
384  455
385  439
386  457
387  504
388  446
389  441
390  468
391  437
392  468
393  491
394  457
395  477
396  497
397  435
398  388
399  485
400  428
401  444
402  434
403  450
404  431
405  435
406  423
407  397
408  420
409  416
410  392
411  421
412  455
413  433
414  381
415  415
416  438
417  377
418  391
419  408
420  430
421  407
422  438
423  418
424  372
425  350
426  389
427  401
428  385
429  401
430  385
431  375
432  363
433  379
434  419
435  383
436  366
437  389
438  353
439  392
440  366
441  371
442  387
443  389
444  384
445  362
446  404
447  385
448  338
449  328
450  373
451  367
452  363
453  380
454  337
455  362
456  343
457  357
458  376
459  368
460  352
461  361
462  386
463  360
464  339
465  370
466  350
467  344
468  368
469  325
470  330
471  393
472  352
473  361
474  356
475  373
476  365
477  361
478  362
479  355
480  332
481  330
482  329
483  339
484  334
485  331
486  332
487  328
488  303
489  345
490  340
491  371
492  370
493  347
494  332
495  340
496  321
497  342
498  320
499  301
500  368
501  332
502  333
503  331
504  354
505  313
506  369
507  338
508  287
509  318
510  336
511  334
512  352
513  346
514  343
515  290
516  319
517  351
518  331
519  290
520  316
521  304
522  291
523  329
524  332
525  304
526  320
527  324
528  330
529  327
530  282
531  287
532  317
533  291
534  287
535  300
536  302
537  305
538  293
539  306
540  301
541  300
542  319
543  313
544  297
545  277
546  317
547  295
548  291
549  301
550  308
551  315
552  265
553  285
554  265
555  310
556  314
557  342
558  298
559  275
560  307
561  271
562  327
563  304
564  297
565  327
566  263
567  313
568  273
569  290
570  310
571  293
572  299
573  288
574  296
575  251
576  280
577  341
578  277
579  287
580  288
581  292
582  325
583  271
584  295
585  303
586  336
587  288
588  273
589  296
590  294
591  290
592  291
593  298
594  274
595  311
596  303
597  263
598  298
599  264
600  286
601  296
602  275
603  310
604  303
605  285
606  266
607  290
608  259
609  300
610  248
611  294
612  291
613  299
614  268
615  263
616  281
617  278
618  286
619  275
620  265
621  288
622  287
623  273
624  277
625  283
626  299
627  288
628  297
629  285
630  291
631  266
632  266
633  261
634  264
635  301
636  266
637  247
638  271
639  291
640  269
641  253
642  242
643  281
644  303
645  239
646  266
647  255
648  287
649  281
650  282
651  277
652  268
653  242
654  259
655  263
656  243
657  256
658  254
659  268
660  278
661  265
662  247
663  264
664  257
665  237
666  248
667  241
668  260
669  258
670  230
671  224
672  265
673  239
674  245
675  238
676  249
677  261
678  249
679  247
680  216
681  260
682  211
683  238
684  235
685  228
686  243
687  225
688  256
689  253
690  252
691  259
692  214
693  226
694  231
695  235
696  213
697  259
698  218
699  241
700  265
701  241
702  218
703  221
704  229
705  225
706  210
707  247
708  225
709  224
710  249
711  247
712  232
713  217
714  209
715  225
716  223
717  233
718  231
719  227
720  236
721  237
722  214
723  219
724  231
725  200
726  210
727  240
728  210
729  214
730  222
731  229
732  211
733  229
734  220
735  224
736  217
737  223
738  210
739  221
740  188
741  201
742  214
743  209
744  200
745  198
746  185
747  223
748  211
749  229
750  217
751  212
752  197
753  203
754  204
755  202
756  214
757  200
758  201
759  222
760  214
761  211
762  221
763  214
764  189
765  180
766  194
767  222
768  192
769  201
770  201
771  230
772  209
773  176
774  185
775  206
776  206
777  177
778  192
779  163
780  183
781  199
782  186
783  178
784  182
785  187
786  179
787  204
788  166
789  195
790  183
791  182
792  180
793  156
794  185
795  151
796  167
797  171
798  182
799  153
800  143
801  154
802  166
803  132
804  161
805  165
806  150
807  178
808  145
809  149
810  139
811  159
812  138
813  162
814  142
815  154
816  136
817  139
818  111
819  146
820  152
821  142
822  122
823  127
824  140
825  109
826  121
827  117
828  115
829  116
830  108
831  103
832  100
833  96
834  121
835  127
836  91
837  114
838  101
839  102
840  97
841  80
842  104
843  80
844  73
845  73
846  75
847  73
848  101
849  86
850  86
851  66
852  93
853  79
854  65
855  76
856  63
857  58
858  75
859  54
860  58
861  66
862  69
863  72
864  58
865  61
866  54
867  48
868  55
869  59
870  52
871  46
872  60
873  44
874  43
875  38
876  38
877  49
878  29
879  46
880  39
881  29
882  43
883  54
884  40
885  39
886  41
887  41
888  25
889  43
890  27
891  36
892  42
893  34
894  30
895  23
896  34
897  21
898  26
899  33
900  23
901  21
902  28
903  31
904  21
905  36
906  22
907  30
908  29
909  28
910  20
911  30
912  23
913  24
914  32
915  23
916  31
917  24
918  26
919  22
920  26
921  17
922  27
923  35
924  27
925  26
926  23
927  26
928  24
929  24
930  21
931  29
932  21
933  21
934  20
935  22
936  19
937  18
938  16
939  16
940  22
941  20
942  20
943  25
944  20
945  19
946  20
947  28
948  33
949  21
950  16
951  39
952  29
953  27
954  18
955  17
956  30
957  31
958  16
959  22
960  17
961  18
962  14
963  18
964  24
965  16
966  20
967  18
968  11
969  22
970  21
971  11
972  18
973  12
974  21
975  17
976  24
977  15
978  18
979  14
980  21
981  16
982  19
983  15
984  24
985  14
986  14
987  19
988  15
989  12
990  18
991  19
992  18
993  17
994  14
995  15
996  12
997  21
998  19
999  12
1000  13
1001  13
1002  13
1003  13
1004  12
1005  12
1006  13
1007  14
1008  16
1009  20
1010  10
1011  11
1012  14
1013  16
1014  12
1015  12
1016  15
1017  17
1018  12
1019  15
1020  12
1021  14
1022  13
1023  18
1024  17
1025  14
1026  12
1027  14
1028  8
1029  5
1030  9
1031  10
1032  6
1033  7
1034  8
1035  12
1036  5
1037  6
1038  4
1039  18
1040  5
1041  13
1042  4
1043  10
1044  7
1045  11
1046  15
1047  4
1048  10
1049  13
1050  6
1051  10
1052  7
1053  10
1054  11
1055  7
1056  3
1057  9
1058  10
1059  8
1060  6
1061  6
1062  14
1063  9
1064  6
1065  1
1066  6
1067  8
1068  6
1069  7
1070  8
1071  7
1072  5
1073  6
1074  4
1075  3
1076  7
1077  5
1078  3
1079  3
1080  8
1081  6
1082  12
1083  7
1084  5
1085  7
1086  4
1087  7
1088  4
1089  5
1090  3
1091  6
1092  5
1093  10
1094  2
1095  3
1096  3
1097  6
1098  6
1099  2
1100  4
1101  4
1102  2
1103  4
1104  8
1105  4
1106  4
1107  6
1108  4
1109  6
1110  4
1111  4
1112  7
1113  4
1114  6
1115  3
1116  0
1117  5
1118  5
1119  4
1120  0
1121  6
1122  6
1123  5
1124  4
1125  6
1126  4
1127  4
1128  3
1129  1
1130  2
1131  2
1132  6
1133  1
1134  5
1135  4
1136  2
1137  6
1138  2
1139  2
1140  3
1141  6
1142  5
1143  1
1144  4
1145  1
1146  3
1147  4
1148  1
1149  3
1150  1
1151  4
1152  3
1153  3
1154  4
1155  4
1156  3
1157  3
1158  1
1159  3
1160  3
1161  2
1162  4
1163  3
1164  2
1165  4
1166  2
1167  4
1168  4
1169  8
1170  3
1171  2
1172  2
1173  3
1174  3
1175  2
1176  2
1177  2
1178  4
1179  3
1180  2
1181  2
1182  1
1183  4
1184  0
1185  3
1186  5
1187  3
1188  3
1189  2
1190  5
1191  2
1192  2
1193  2
1194  2
1195  3
1196  2
1197  4
1198  2
1199  3
1200  3
1201  4
1202  0
1203  4
1204  1
1205  3
1206  3
1207  5
1208  2
1209  1
1210  1
1211  2
1212  4
1213  0
1214  3
1215  4
1216  5
1217  4
1218  1
1219  4
1220  2
1221  3
1222  4
1223  3
1224  2
1225  2
1226  1
1227  1
1228  0
1229  3
1230  3
1231  3
1232  1
1233  3
1234  4
1235  5
1236  1
1237  1
1238  8
1239  4
1240  2
1241  3
1242  0
1243  1
1244  5
1245  7
1246  2
1247  3
1248  1
1249  4
1250  5
1251  1
1252  4
1253  6
1254  3
1255  4
1256  6
1257  3
1258  1
1259  1
1260  4
1261  3
1262  2
1263  3
1264  2
1265  2
1266  3
1267  1
1268  11
1269  2
1270  2
1271  3
1272  3
1273  5
1274  5
1275  6
1276  0
1277  2
1278  4
1279  6
1280  3
1281  2
1282  1
1283  3
1284  1
1285  2
1286  1
1287  3
1288  2
1289  2
1290  4
1291  2
1292  2
1293  4
1294  1
1295  1
1296  1
1297  1
1298  2
1299  2
1300  1
1301  1
1302  4
1303  6
1304  0
1305  4
1306  1
1307  1
1308  0
1309  2
1310  3
1311  1
1312  1
1313  4
1314  3
1315  3
1316  2
1317  3
1318  2
1319  1
1320  1
1321  7
1322  2
1323  5
1324  1
1325  1
1326  4
1327  2
1328  5
1329  0
1330  0
1331  2
1332  4
1333  2
1334  3
1335  2
1336  2
1337  2
1338  4
1339  1
1340  1
1341  1
1342  3
1343  1
1344  4
1345  2
1346  3
1347  6
1348  0
1349  4
1350  2
1351  1
1352  2
1353  2
1354  1
1355  5
1356  1
1357  3
1358  4
1359  2
1360  2
1361  1
1362  2
1363  3
1364  0
1365  1
1366  4
1367  3
1368  2
1369  3
1370  2
1371  1
1372  2
1373  5
1374  2
1375  0
1376  0
1377  1
1378  4
1379  4
1380  1
1381  2
1382  2
1383  2
1384  5
1385  3
1386  7
1387  3
1388  1
1389  5
1390  3
1391  1
1392  2
1393  2
1394  3
1395  3
1396  0
1397  3
1398  1
1399  2
1400  3
1401  1
1402  1
1403  2
1404  1
1405  2
1406  1
1407  4
1408  2
1409  1
1410  5
1411  2
1412  2
1413  1
1414  3
1415  2
1416  1
1417  0
1418  0
1419  1
1420  4
1421  3
1422  3
1423  3
1424  4
1425  0
1426  1
1427  3
1428  1
1429  0
1430  1
1431  1
1432  1
1433  1
1434  2
1435  3
1436  2
1437  1
1438  3
1439  1
1440  0
1441  4
1442  2
1443  0
1444  1
1445  2
1446  0
1447  3
1448  0
1449  1
1450  2
1451  4
1452  1
1453  0
1454  2
1455  2
1456  1
1457  1
1458  1
1459  1
1460  1
1461  1
1462  1
1463  1
1464  2
1465  2
1466  0
1467  1
1468  1
1469  1
1470  1
1471  1
1472  0
1473  2
1474  2
1475  3
1476  3
1477  1
1478  5
1479  0
1480  3
1481  1
1482  2
1483  0
1484  1
1485  3
1486  1
1487  1
1488  1
1489  3
1490  1
1491  1
1492  0
1493  1
1494  0
1495  2
1496  0
1497  2
1498  3
1499  1
1500  4
1501  2
1502  1
1503  1
1504  1
1505  0
1506  2
1507  1
1508  0
1509  1
1510  0
1511  2
1512  1
1513  0
1514  3
1515  1
1516  2
1517  0
1518  4
1519  1
1520  2
1521  1
1522  1
1523  1
1524  0
1525  2
1526  1
1527  3
1528  1
1529  0
1530  2
1531  3
1532  3
1533  1
1534  1
1535  0
1536  1
1537  4
1538  1
1539  4
1540  1
1541  1
1542  2
1543  1
1544  2
1545  0
1546  1
1547  0
1548  1
1549  0
1550  3
1551  5
1552  0
1553  1
1554  2
1555  0
1556  0
1557  1
1558  2
1559  1
1560  1
1561  0
1562  1
1563  3
1564  1
1565  1
1566  2
1567  3
1568  1
1569  2
1570  0
1571  4
1572  0
1573  1
1574  1
1575  1
1576  2
1577  2
1578  0
1579  0
1580  3
1581  1
1582  1
1583  1
1584  0
1585  0
1586  1
1587  1
1588  2
1589  2
1590  1
1591  0
1592  3
1593  3
1594  0
1595  2
1596  1
1597  1
1598  0
1599  1
1600  1
1601  0
1602  1
1603  2
1604  2
1605  0
1606  2
1607  0
1608  1
1609  3
1610  0
1611  0
1612  2
1613  1
1614  2
1615  1
1616  1
1617  0
1618  2
1619  2
1620  1
1621  1
1622  0
1623  0
1624  2
1625  1
1626  1
1627  2
1628  1
1629  6
1630  3
1631  2
1632  1
1633  0
1634  0
1635  0
1636  0
1637  2
1638  2
1639  2
1640  3
1641  2
1642  1
1643  0
1644  1
1645  1
1646  2
1647  2
1648  1
1649  1
1650  1
1651  1
1652  1
1653  0
1654  0
1655  3
1656  1
1657  2
1658  3
1659  1
1660  2
1661  2
1662  1
1663  0
1664  1
1665  4
1666  0
1667  0
1668  2
1669  3
1670  0
1671  1
1672  1
1673  1
1674  1
1675  0
1676  2
1677  3
1678  1
1679  1
1680  1
1681  1
1682  3
1683  1
1684  3
1685  4
1686  2
1687  0
1688  4
1689  2
1690  0
1691  3
1692  2
1693  1
1694  1
1695  0
1696  4
1697  2
1698  1
1699  1
1700  0
1701  0
1702  0
1703  0
1704  1
1705  0
1706  1
1707  1
1708  2
1709  2
1710  2
1711  2
1712  1
1713  0
1714  2
1715  0
1716  0
1717  0
1718  0
1719  0
1720  2
1721  0
1722  1
1723  1
1724  1
1725  1
1726  1
1727  2
1728  0
1729  0
1730  2
1731  0
1732  0
1733  3
1734  3
1735  0
1736  1
1737  1
1738  2
1739  1
1740  1
1741  1
1742  1
1743  1
1744  0
1745  1
1746  2
1747  3
1748  4
1749  3
1750  2
1751  0
1752  1
1753  2
1754  2
1755  2
1756  0
1757  0
1758  1
1759  0
1760  0
1761  1
1762  2
1763  1
1764  1
1765  0
1766  0
1767  1
1768  1
1769  1
1770  0
1771  1
1772  3
1773  0
1774  0
1775  0
1776  1
1777  0
1778  1
1779  0
1780  0
1781  1
1782  0
1783  1
1784  1
1785  0
1786  1
1787  2
1788  0
1789  1
1790  1
1791  1
1792  2
1793  1
1794  4
1795  1
1796  2
1797  2
1798  0
1799  0
1800  3
1801  2
1802  0
1803  0
1804  1
1805  0
1806  3
1807  0
1808  1
1809  0
1810  1
1811  0
1812  1
1813  1
1814  0
1815  1
1816  1
1817  1
1818  0
1819  1
1820  1
1821  1
1822  0
1823  2
1824  1
1825  0
1826  0
1827  2
1828  4
1829  2
1830  1
1831  1
1832  2
1833  1
1834  1
1835  0
1836  2
1837  0
1838  0
1839  4
1840  1
1841  1
1842  0
1843  2
1844  0
1845  1
1846  2
1847  0
1848  4
1849  1
1850  1
1851  2
1852  1
1853  1
1854  2
1855  2
1856  1
1857  0
1858  0
1859  5
1860  1
1861  1
1862  2
1863  1
1864  3
1865  1
1866  2
1867  1
1868  3
1869  1
1870  3
1871  1
1872  3
1873  0
1874  1
1875  0
1876  2
1877  2
1878  0
1879  0
1880  2
1881  1
1882  0
1883  0
1884  1
1885  1
1886  1
1887  2
1888  0
1889  1
1890  1
1891  0
1892  0
1893  1
1894  0
1895  3
1896  1
1897  3
1898  0
1899  1
1900  0
1901  3
1902  1
1903  0
1904  2
1905  0
1906  1
1907  0
1908  2
1909  0
1910  1
1911  1
1912  0
1913  0
1914  4
1915  2
1916  2
1917  1
1918  0
1919  0
1920  0
1921  2
1922  0
1923  1
1924  2
1925  0
1926  2
1927  0
1928  2
1929  0
1930  0
1931  1
1932  0
1933  0
1934  2
1935  1
1936  1
1937  0
1938  1
1939  1
1940  1
1941  1
1942  0
1943  1
1944  0
1945  1
1946  0
1947  2
1948  1
1949  0
1950  0
1951  0
1952  0
1953  2
1954  3
1955  0
1956  2
1957  0
1958  1
1959  1
1960  3
1961  0
1962  0
1963  0
1964  4
1965  0
1966  1
1967  0
1968  1
1969  0
1970  0
1971  2
1972  2
1973  0
1974  0
1975  2
1976  1
1977  0
1978  6
1979  0
1980  2
1981  1
1982  0
1983  1
1984  2
1985  3
1986  3
1987  0
1988  0
1989  2
1990  2
1991  0
1992  2
1993  0
1994  1
1995  1
1996  2
1997  0
1998  2
1999  1
2000  2
2001  1
2002  1
2003  0
2004  2
2005  4
2006  1
2007  0
2008  0
2009  0
2010  1
2011  1
2012  1
2013  1
2014  1
2015  0
2016  1
2017  0
2018  1
2019  0
2020  0
2021  2
2022  0
2023  1
2024  1
2025  0
2026  2
2027  1
2028  1
2029  2
2030  1
2031  2
2032  1
2033  0
2034  2
2035  3
2036  3
2037  1
2038  1
2039  3
2040  2
2041  0
2042  1
2043  1
2044  1
2045  2
2046  0
2047  2
2048  2
2049  0
2050  0
2051  2
2052  0
2053  1
2054  1
2055  1
2056  0
2057  1
2058  1
2059  1
2060  0
2061  2
2062  2
2063  4
2064  5
2065  1
2066  1
2067  0
2068  2
2069  0
2070  1
2071  2
2072  4
2073  3
2074  0
2075  2
2076  0
2077  1
2078  0
2079  0
2080  0
2081  1
2082  3
2083  0
2084  1
2085  0
2086  0
2087  0
2088  0
2089  1
2090  0
2091  1
2092  1
2093  1
2094  1
2095  1
2096  4
2097  1
2098  1
2099  0
2100  2
2101  1
2102  1
2103  2
2104  1
2105  1
2106  0
2107  0
2108  1
2109  1
2110  1
2111  1
2112  0
2113  1
2114  1
2115  1
2116  1
2117  0
2118  3
2119  2
2120  1
2121  0
2122  3
2123  0
2124  0
2125  0
2126  2
2127  0
2128  0
2129  0
2130  2
2131  1
2132  0
2133  1
2134  1
2135  2
2136  0
2137  0
2138  0
2139  2
2140  1
2141  1
2142  0
2143  3
2144  2
2145  3
2146  0
2147  1
2148  1
2149  2
2150  0
2151  1
2152  1
2153  0
2154  1
2155  1
2156  1
2157  1
2158  0
2159  2
2160  1
2161  3
2162  0
2163  0
2164  1
2165  1
2166  0
2167  2
2168  1
2169  1
2170  3
2171  2
2172  0
2173  0
2174  1
2175  3
2176  0
2177  1
2178  0
2179  1
2180  1
2181  1
2182  0
2183  0
2184  0
2185  1
2186  0
2187  1
2188  1
2189  1
2190  0
2191  2
2192  0
2193  0
2194  1
2195  0
2196  0
2197  1
2198  1
2199  1
2200  3
2201  0
2202  1
2203  1
2204  1
2205  2
2206  1
2207  0
2208  2
2209  0
2210  0
2211  2
2212  1
2213  1
2214  1
2215  0
2216  1
2217  1
2218  1
2219  2
2220  2
2221  1
2222  0
2223  1
2224  1
2225  1
2226  0
2227  0
2228  2
2229  0
2230  0
2231  0
2232  1
2233  1
2234  2
2235  1
2236  3
2237  1
2238  0
2239  2
2240  0
2241  0
2242  1
2243  0
2244  0
2245  0
2246  0
2247  0
2248  0
2249  1
2250  1
2251  0
2252  0
2253  1
2254  0
2255  1
2256  1
2257  2
2258  0
2259  1
2260  0
2261  1
2262  0
2263  2
2264  1
2265  0
2266  0
2267  1
2268  0
2269  1
2270  3
2271  0
2272  1
2273  0
2274  0
2275  2
2276  0
2277  0
2278  0
2279  1
2280  1
2281  1
2282  1
2283  1
2284  0
2285  1
2286  0
2287  1
2288  1
2289  0
2290  0
2291  1
2292  1
2293  2
2294  0
2295  1
2296  0
2297  0
2298  0
2299  1
2300  1
2301  0
2302  1
2303  1
2304  1
2305  1
2306  1
2307  2
2308  0
2309  2
2310  2
2311  0
2312  0
2313  0
2314  0
2315  1
2316  1
2317  5
2318  1
2319  1
2320  3
2321  0
2322  1
2323  0
2324  0
2325  0
2326  1
2327  2
2328  2
2329  2
2330  0
2331  0
2332  1
2333  0
2334  1
2335  0
2336  0
2337  1
2338  0
2339  1
2340  1
2341  1
2342  0
2343  0
2344  0
2345  1
2346  0
2347  0
2348  1
2349  1
2350  1
2351  1
2352  0
2353  4
2354  1
2355  1
2356  2
2357  0
2358  0
2359  1
2360  0
2361  0
2362  0
2363  2
2364  1
2365  1
2366  1
2367  2
2368  1
2369  0
2370  0
2371  1
2372  0
2373  1
2374  2
2375  1
2376  0
2377  1
2378  0
2379  0
2380  0
2381  0
2382  0
2383  1
2384  0
2385  2
2386  0
2387  1
2388  0
2389  2
2390  2
2391  0
2392  0
2393  1
2394  0
2395  0
2396  0
2397  1
2398  3
2399  1
2400  1
2401  2
2402  1
2403  2
2404  2
2405  0
2406  1
2407  2
2408  1
2409  2
2410  1
2411  1
2412  2
2413  2
2414  0
2415  1
2416  0
2417  1
2418  1
2419  0
2420  1
2421  2
2422  0
2423  2
2424  1
2425  0
2426  2
2427  2
2428  1
2429  2
2430  3
2431  0
2432  0
2433  1
2434  0
2435  1
2436  0
2437  0
2438  0
2439  0
2440  0
2441  1
2442  0
2443  2
2444  0
2445  0
2446  0
2447  1
2448  0
2449  1
2450  1
2451  0
2452  2
2453  1
2454  0
2455  0
2456  1
2457  1
2458  0
2459  1
2460  0
2461  3
2462  1
2463  2
2464  0
2465  0
2466  1
2467  1
2468  2
2469  0
2470  1
2471  0
2472  2
2473  1
2474  1
2475  3
2476  0
2477  2
2478  1
2479  0
2480  0
2481  0
2482  0
2483  1
2484  0
2485  3
2486  1
2487  1
2488  1
2489  0
2490  1
2491  0
2492  0
2493  0
2494  1
2495  0
2496  1
2497  0
2498  0
2499  0
2500  0
2501  0
2502  0
2503  1
2504  0
2505  0
2506  2
2507  1
2508  1
2509  0
2510  1
2511  0
2512  1
2513  0
2514  2
2515  0
2516  0
2517  0
2518  2
2519  0
2520  1
2521  0
2522  1
2523  0
2524  0
2525  0
2526  1
2527  2
2528  1
2529  0
2530  1
2531  0
2532  0
2533  1
2534  0
2535  0
2536  2
2537  3
2538  0
2539  0
2540  0
2541  0
2542  2
2543  0
2544  1
2545  2
2546  2
2547  2
2548  2
2549  2
2550  0
2551  0
2552  0
2553  0
2554  0
2555  0
2556  0
2557  0
2558  1
2559  0
2560  0
2561  1
2562  0
2563  0
2564  1
2565  1
2566  1
2567  0
2568  0
2569  2
2570  0
2571  0
2572  1
2573  1
2574  1
2575  0
2576  0
2577  0
2578  0
2579  0
2580  0
2581  2
2582  0
2583  0
2584  0
2585  3
2586  1
2587  3
2588  0
2589  0
2590  1
2591  0
2592  1
2593  0
2594  1
2595  0
2596  0
2597  1
2598  0
2599  0
2600  1
2601  1
2602  0
2603  0
2604  1
2605  0
2606  1
2607  0
2608  0
2609  1
2610  0
2611  0
2612  2
2613  0
2614  1
2615  0
2616  3
2617  0
2618  2
2619  0
2620  0
2621  1
2622  0
2623  1
2624  0
2625  2
2626  0
2627  1
2628  0
2629  1
2630  0
2631  1
2632  0
2633  1
2634  0
2635  0
2636  0
2637  0
2638  0
2639  1
2640  1
2641  2
2642  2
2643  2
2644  1
2645  0
2646  2
2647  0
2648  0
2649  1
2650  1
2651  0
2652  0
2653  0
2654  0
2655  0
2656  1
2657  0
2658  0
2659  1
2660  2
2661  0
2662  1
2663  0
2664  0
2665  0
2666  1
2667  1
2668  1
2669  1
2670  2
2671  0
2672  0
2673  0
2674  0
2675  1
2676  0
2677  0
2678  0
2679  0
2680  0
2681  0
2682  0
2683  1
2684  1
2685  0
2686  1
2687  0
2688  0
2689  0
2690  1
2691  0
2692  2
2693  0
2694  1
2695  0
2696  0
2697  0
2698  1
2699  1
2700  1
2701  0
2702  0
2703  0
2704  1
2705  0
2706  3
2707  0
2708  1
2709  0
2710  1
2711  0
2712  0
2713  0
2714  1
2715  1
2716  1
2717  0
2718  1
2719  0
2720  0
2721  0
2722  0
2723  0
2724  2
2725  1
2726  0
2727  0
2728  1
2729  0
2730  0
2731  0
2732  2
2733  0
2734  2
2735  1
2736  0
2737  0
2738  1
2739  0
2740  1
2741  2
2742  0
2743  1
2744  0
2745  0
2746  2
2747  0
2748  0
2749  0
2750  0
2751  0
2752  0
2753  1
2754  1
2755  1
2756  1
2757  0
2758  0
2759  0
2760  0
2761  0
2762  1
2763  1
2764  0
2765  0
2766  1
2767  0
2768  0
2769  1
2770  0
2771  0
2772  1
2773  0
2774  0
2775  0
2776  0
2777  0
2778  0
2779  0
2780  1
2781  1
2782  1
2783  0
2784  0
2785  0
2786  4
2787  2
2788  1
2789  0
2790  0
2791  0
2792  0
2793  0
2794  1
2795  1
2796  0
2797  1
2798  2
2799  0
2800  0
2801  0
2802  0
2803  0
2804  1
2805  1
2806  1
2807  0
2808  1
2809  0
2810  0
2811  1
2812  0
2813  0
2814  2
2815  0
2816  0
2817  0
2818  3
2819  2
2820  0
2821  0
2822  0
2823  0
2824  1
2825  1
2826  1
2827  0
2828  0
2829  0
2830  0
2831  1
2832  0
2833  0
2834  0
2835  1
2836  0
2837  1
2838  1
2839  2
2840  0
2841  0
2842  2
2843  1
2844  0
2845  0
2846  0
2847  2
2848  0
2849  0
2850  0
2851  0
2852  0
2853  0
2854  0
2855  0
2856  1
2857  0
2858  0
2859  0
2860  1
2861  0
2862  0
2863  1
2864  0
2865  0
2866  0
2867  1
2868  0
2869  0
2870  0
2871  1
2872  1
2873  0
2874  1
2875  0
2876  0
2877  1
2878  0
2879  2
2880  1
2881  0
2882  0
2883  0
2884  0
2885  0
2886  1
2887  0
2888  1
2889  2
2890  0
2891  0
2892  1
2893  2
2894  0
2895  0
2896  0
2897  1
2898  1
2899  1
2900  0
2901  1
2902  1
2903  0
2904  5
2905  0
2906  0
2907  0
2908  1
2909  1
2910  0
2911  0
2912  0
2913  1
2914  0
2915  1
2916  2
2917  1
2918  0
2919  0
2920  0
2921  0
2922  1
2923  2
2924  2
2925  0
2926  1
2927  0
2928  1
2929  1
2930  0
2931  0
2932  1
2933  1
2934  0
2935  0
2936  1
2937  1
2938  0
2939  0
2940  1
2941  1
2942  0
2943  0
2944  0
2945  1
2946  1
2947  2
2948  0
2949  0
2950  0
2951  0
2952  1
2953  0
2954  0
2955  1
2956  1
2957  2
2958  0
2959  0
2960  0
2961  1
2962  1
2963  1
2964  0
2965  0
2966  0
2967  0
2968  1
2969  1
2970  1
2971  2
2972  0
2973  0
2974  0
2975  0
2976  2
2977  0
2978  0
2979  0
2980  1
2981  1
2982  0
2983  0
2984  0
2985  0
2986  0
2987  0
2988  1
2989  0
2990  1
2991  1
2992  1
2993  0
2994  0
2995  0
2996  1
2997  2
2998  0
2999  0
3000  1
3001  1
3002  0
3003  1
3004  0
3005  0
3006  2
3007  0
3008  0
3009  0
3010  1
3011  1
3012  0
3013  0
3014  0
3015  1
3016  1
3017  0
3018  2
3019  0
3020  0
3021  0
3022  2
3023  2
3024  1
3025  0
3026  2
3027  1
3028  0
3029  1
3030  0
3031  1
3032  1
3033  0
3034  1
3035  0
3036  2
3037  0
3038  0
3039  2
3040  0
3041  0
3042  0
3043  1
3044  1
3045  1
3046  0
3047  0
3048  0
3049  1
3050  1
3051  0
3052  1
3053  0
3054  1
3055  0
3056  0
3057  0
3058  0
3059  0
3060  0
3061  1
3062  1
3063  1
3064  0
3065  1
3066  0
3067  0
3068  0
3069  0
3070  0
3071  2
3072  0
3073  2
3074  0
3075  0
3076  0
3077  0
3078  1
3079  0
3080  0
3081  0
3082  0
3083  0
3084  0
3085  1
3086  1
3087  1
3088  0
3089  1
3090  1
3091  1
3092  1
3093  0
3094  2
3095  0
3096  0
3097  0
3098  0
3099  0
3100  0
3101  1
3102  0
3103  1
3104  1
3105  0
3106  2
3107  0
3108  0
3109  0
3110  0
3111  2
3112  0
3113  0
3114  0
3115  1
3116  0
3117  0
3118  0
3119  0
3120  0
3121  0
3122  0
3123  0
3124  0
3125  0
3126  1
3127  2
3128  1
3129  2
3130  0
3131  1
3132  0
3133  1
3134  0
3135  0
3136  0
3137  0
3138  0
3139  2
3140  1
3141  0
3142  0
3143  0
3144  0
3145  0
3146  1
3147  1
3148  1
3149  1
3150  1
3151  0
3152  0
3153  0
3154  0
3155  0
3156  0
3157  0
3158  1
3159  2
3160  1
3161  0
3162  0
3163  0
3164  1
3165  0
3166  1
3167  1
3168  1
3169  0
3170  0
3171  0
3172  1
3173  1
3174  0
3175  0
3176  1
3177  3
3178  1
3179  3
3180  1
3181  0
3182  0
3183  1
3184  0
3185  0
3186  0
3187  0
3188  1
3189  1
3190  0
3191  0
3192  1
3193  1
3194  1
3195  1
3196  0
3197  1
3198  0
3199  1
3200  0
3201  0
3202  2
3203  0
3204  2
3205  2
3206  1
3207  0
3208  2
3209  0
3210  0
3211  1
3212  0
3213  1
3214  0
3215  1
3216  0
3217  1
3218  0
3219  0
3220  0
3221  0
3222  2
3223  1
3224  1
3225  0
3226  0
3227  1
3228  1
3229  1
3230  1
3231  1
3232  1
3233  1
3234  0
3235  0
3236  0
3237  0
3238  0
3239  0
3240  0
3241  1
3242  0
3243  0
3244  0
3245  0
3246  0
3247  1
3248  0
3249  0
3250  0
3251  0
3252  0
3253  0
3254  1
3255  0
3256  1
3257  0
3258  0
3259  2
3260  0
3261  1
3262  0
3263  0
3264  0
3265  0
3266  0
3267  0
3268  0
3269  0
3270  1
3271  1
3272  0
3273  0
3274  0
3275  0
3276  0
3277  0
3278  0
3279  0
3280  0
3281  0
3282  1
3283  0
3284  0
3285  0
3286  1
3287  1
3288  0
3289  0
3290  0
3291  0
3292  1
3293  0
3294  0
3295  1
3296  0
3297  0
3298  0
3299  1
3300  0
3301  1
3302  0
3303  0
3304  0
3305  0
3306  1
3307  1
3308  0
3309  1
3310  0
3311  0
3312  0
3313  0
3314  0
3315  0
3316  2
3317  0
3318  0
3319  0
3320  0
3321  0
3322  0
3323  0
3324  1
3325  0
3326  0
3327  1
3328  1
3329  1
3330  0
3331  0
3332  1
3333  0
3334  1
3335  0
3336  0
3337  0
3338  2
3339  0
3340  0
3341  0
3342  3
3343  0
3344  0
3345  0
3346  0
3347  1
3348  0
3349  0
3350  2
3351  1
3352  0
3353  1
3354  0
3355  1
3356  0
3357  0
3358  0
3359  0
3360  0
3361  0
3362  1
3363  0
3364  0
3365  0
3366  0
3367  1
3368  0
3369  2
3370  1
3371  0
3372  0
3373  0
3374  0
3375  0
3376  0
3377  0
3378  0
3379  1
3380  0
3381  0
3382  1
3383  0
3384  0
3385  1
3386  1
3387  0
3388  0
3389  0
3390  0
3391  0
3392  0
3393  0
3394  2
3395  1
3396  0
3397  0
3398  0
3399  1
3400  1
3401  0
3402  1
3403  1
3404  0
3405  0
3406  0
3407  0
3408  0
3409  0
3410  0
3411  2
3412  0
3413  0
3414  0
3415  0
3416  1
3417  1
3418  0
3419  1
3420  0
3421  0
3422  0
3423  1
3424  0
3425  0
3426  0
3427  0
3428  0
3429  0
3430  0
3431  1
3432  0
3433  0
3434  0
3435  0
3436  0
3437  1
3438  0
3439  0
3440  1
3441  0
3442  0
3443  0
3444  0
3445  0
3446  0
3447  1
3448  0
3449  1
3450  0
3451  1
3452  2
3453  0
3454  0
3455  0
3456  0
3457  0
3458  1
3459  0
3460  0
3461  0
3462  0
3463  2
3464  0
3465  1
3466  0
3467  0
3468  0
3469  1
3470  0
3471  0
3472  0
3473  0
3474  0
3475  0
3476  1
3477  0
3478  1
3479  0
3480  0
3481  1
3482  1
3483  0
3484  0
3485  0
3486  0
3487  0
3488  0
3489  1
3490  0
3491  2
3492  1
3493  0
3494  0
3495  0
3496  0
3497  1
3498  0
3499  2
3500  2
3501  0
3502  0
3503  0
3504  1
3505  0
3506  2
3507  0
3508  0
3509  0
3510  0
3511  0
3512  0
3513  1
3514  1
3515  0
3516  0
3517  1
3518  1
3519  0
3520  0
3521  0
3522  0
3523  0
3524  0
3525  1
3526  0
3527  0
3528  0
3529  0
3530  0
3531  0
3532  0
3533  0
3534  1
3535  1
3536  3
3537  0
3538  0
3539  0
3540  0
3541  0
3542  0
3543  0
3544  1
3545  0
3546  0
3547  0
3548  0
3549  0
3550  0
3551  2
3552  1
3553  0
3554  0
3555  0
3556  0
3557  1
3558  0
3559  1
3560  0
3561  0
3562  0
3563  0
3564  2
3565  0
3566  4
3567  0
3568  0
3569  0
3570  0
3571  0
3572  0
3573  0
3574  0
3575  0
3576  0
3577  0
3578  0
3579  0
3580  0
3581  0
3582  0
3583  0
3584  0
3585  1
3586  0
3587  0
3588  1
3589  0
3590  0
3591  0
3592  2
3593  0
3594  0
3595  0
3596  0
3597  0
3598  0
3599  0
3600  0
3601  0
3602  1
3603  0
3604  0
3605  2
3606  1
3607  0
3608  1
3609  0
3610  0
3611  0
3612  0
3613  1
3614  0
3615  0
3616  0
3617  0
3618  0
3619  1
3620  0
3621  0
3622  1
3623  1
3624  1
3625  1
3626  0
3627  1
3628  0
3629  1
3630  0
3631  0
3632  0
3633  0
3634  0
3635  0
3636  1
3637  1
3638  0
3639  1
3640  0
3641  1
3642  0
3643  1
3644  1
3645  0
3646  1
3647  0
3648  0
3649  1
3650  0
3651  0
3652  0
3653  0
3654  0
3655  0
3656  0
3657  0
3658  0
3659  0
3660  2
3661  0
3662  0
3663  1
3664  0
3665  0
3666  1
3667  0
3668  0
3669  0
3670  0
3671  0
3672  2
3673  0
3674  0
3675  2
3676  0
3677  0
3678  0
3679  1
3680  0
3681  0
3682  0
3683  1
3684  0
3685  0
3686  0
3687  0
3688  0
3689  0
3690  0
3691  0
3692  0
3693  1
3694  1
3695  1
3696  0
3697  0
3698  0
3699  0
3700  1
3701  0
3702  1
3703  0
3704  0
3705  0
3706  0
3707  1
3708  0
3709  0
3710  1
3711  0
3712  0
3713  0
3714  0
3715  0
3716  2
3717  0
3718  0
3719  1
3720  2
3721  0
3722  0
3723  0
3724  0
3725  0
3726  0
3727  0
3728  1
3729  1
3730  0
3731  1
3732  1
3733  0
3734  0
3735  1
3736  0
3737  0
3738  0
3739  0
3740  0
3741  0
3742  0
3743  1
3744  0
3745  0
3746  0
3747  0
3748  0
3749  0
3750  0
3751  0
3752  2
3753  0
3754  1
3755  1
3756  0
3757  1
3758  1
3759  1
3760  0
3761  0
3762  1
3763  1
3764  3
3765  1
3766  0
3767  0
3768  0
3769  0
3770  1
3771  0
3772  0
3773  1
3774  2
3775  2
3776  4
3777  1
3778  2
3779  2
3780  2
3781  0
3782  1
3783  3
3784  0
3785  2
3786  4
3787  2
3788  2
3789  1
3790  2
3791  4
3792  0
3793  1
3794  3
3795  1
3796  3
3797  3
3798  0
3799  2
3800  3
3801  6
3802  7
3803  3
3804  6
3805  6
3806  8
3807  7
3808  8
3809  4
3810  8
3811  12
3812  10
3813  5
3814  7
3815  6
3816  8
3817  6
3818  6
3819  3
3820  5
3821  1
3822  3
3823  3
3824  5
3825  3
3826  1
3827  3
3828  3
3829  3
3830  3
3831  3
3832  0
3833  1
3834  2
3835  1
3836  0
3837  1
3838  0
3839  0
3840  0
3841  0
3842  0
3843  0
3844  0
3845  0
3846  0
3847  0
3848  0
3849  0
3850  0
3851  0
3852  0
3853  0
3854  0
3855  0
3856  0
3857  0
3858  0
3859  0
3860  0
3861  0
3862  0
3863  0
3864  0
3865  0
3866  0
3867  0
3868  0
3869  0
3870  0
3871  0
3872  0
3873  0
3874  0
3875  0
3876  0
3877  0
3878  0
3879  0
3880  0
3881  0
3882  0
3883  0
3884  0
3885  0
3886  0
3887  0
3888  0
3889  0
3890  0
3891  0
3892  0
3893  0
3894  0
3895  0
3896  0
3897  0
3898  0
3899  0
3900  0
3901  0
3902  0
3903  0
3904  0
3905  0
3906  0
3907  0
3908  0
3909  0
3910  0
3911  0
3912  0
3913  0
3914  0
3915  0
3916  0
3917  0
3918  0
3919  0
3920  0
3921  0
3922  0
3923  0
3924  0
3925  0
3926  0
3927  0
3928  0
3929  0
3930  0
3931  0
3932  0
3933  0
3934  0
3935  0
3936  0
3937  0
3938  0
3939  0
3940  0
3941  0
3942  0
3943  0
3944  0
3945  0
3946  0
3947  0
3948  0
3949  0
3950  0
3951  0
3952  0
3953  0
3954  0
3955  0
3956  0
3957  0
3958  0
3959  0
3960  0
3961  0
3962  0
3963  0
3964  0
3965  0
3966  0
3967  0
3968  0
3969  0
3970  0
3971  0
3972  0
3973  0
3974  0
3975  0
3976  0
3977  0
3978  0
3979  0
3980  0
3981  0
3982  0
3983  0
3984  0
3985  0
3986  0
3987  0
3988  0
3989  0
3990  0
3991  0
3992  0
3993  0
3994  0
3995  0
3996  0
3997  0
3998  0
3999  0
4000  0
4001  0
4002  0
4003  0
4004  0
4005  0
4006  0
4007  0
4008  0
4009  0
4010  0
4011  0
4012  0
4013  0
4014  0
4015  0
4016  0
4017  0
4018  0
4019  0
4020  0
4021  0
4022  0
4023  0
4024  0
4025  0
4026  0
4027  0
4028  0
4029  0
4030  0
4031  0
4032  0
4033  0
4034  0
4035  0
4036  0
4037  0
4038  0
4039  0
4040  0
4041  0
4042  0
4043  0
4044  0
4045  0
4046  0
4047  0
4048  0
4049  0
4050  0
4051  0
4052  0
4053  0
4054  0
4055  0
4056  0
4057  0
4058  0
4059  0
4060  0
4061  0
4062  0
4063  0
4064  0
4065  0
4066  0
4067  0
4068  0
4069  0
4070  0
4071  0
4072  0
4073  0
4074  0
4075  0
4076  0
4077  0
4078  0
4079  0
4080  0
4081  0
4082  0
4083  0
4084  0
4085  0
4086  0
4087  0
4088  0
4089  0
4090  0
4091  0
4092  0
4093  0
4094  0
4095  0
