0  0
1  0
2  0
3  0
4  0
5  0
6  0
7  0
8  0
9  0
10  0
11  0
12  0
13  0
14  2
15  60
16  221
17  238
18  72
19  24
20  13
21  3
22  2
23  2
24  4
25  0
26  1
27  8
28  0
29  3
30  1
31  2
32  2
33  1
34  2
35  2
36  1
37  2
38  2
39  4
40  2
41  3
42  1
43  0
44  0
45  0
46  0
47  1
48  0
49  0
50  0
51  0
52  0
53  0
54  0
55  0
56  0
57  0
58  0
59  0
60  0
61  0
62  0
63  0
64  0
65  0
66  0
67  0
68  0
69  0
70  0
71  0
72  0
73  0
74  0
75  0
76  0
77  0
78  0
79  0
80  0
81  0
82  0
83  0
84  0
85  0
86  0
87  0
88  0
89  0
90  0
91  0
92  0
93  0
94  0
95  0
96  0
97  0
98  0
99  0
100  0
101  0
102  0
103  0
104  0
105  0
106  0
107  0
108  0
109  0
110  0
111  0
112  0
113  0
114  0
115  0
116  0
117  0
118  0
119  0
120  0
121  0
122  0
123  0
124  0
125  0
126  0
127  0
128  0
129  0
130  0
131  0
132  0
133  0
134  0
135  0
136  0
137  0
138  0
139  0
140  0
141  0
142  0
143  0
144  0
145  0
146  0
147  0
148  0
149  0
150  0
151  0
152  0
153  0
154  0
155  0
156  0
157  0
158  0
159  0
160  0
161  0
162  0
163  0
164  0
165  0
166  0
167  0
168  0
169  0
170  0
171  0
172  0
173  0
174  0
175  0
176  0
177  0
178  0
179  0
180  0
181  2
182  35
183  131
184  184
185  221
186  223
187  185
188  96
189  48
190  31
191  32
192  22
193  20
194  15
195  20
196  16
197  19
198  13
199  12
200  9
201  10
202  10
203  15
204  7
205  10
206  13
207  12
208  12
209  10
210  14
211  7
212  11
213  6
214  13
215  11
216  11
217  7
218  6
219  12
220  10
221  8
222  13
223  9
224  9
225  14
226  10
227  12
228  10
229  13
230  6
231  10
232  13
233  16
234  9
235  10
236  10
237  13
238  9
239  14
240  13
241  9
242  6
243  10
244  11
245  7
246  8
247  12
248  8
249  8
250  6
251  4
252  15
253  7
254  12
255  9
256  10
257  11
258  7
259  10
260  6
261  16
262  15
263  5
264  11
265  8
266  9
267  15
268  12
269  15
270  9
271  10
272  12
273  7
274  13
275  10
276  7
277  6
278  9
279  6
280  14
281  16
282  11
283  9
284  14
285  9
286  10
287  13
288  8
289  7
290  9
291  12
292  5
293  10
294  7
295  6
296  10
297  11
298  10
299  14
300  10
301  11
302  14
303  13
304  9
305  10
306  9
307  6
308  9
309  11
310  12
311  9
312  7
313  11
314  11
315  9
316  7
317  12
318  6
319  10
320  10
321  5
322  12
323  9
324  8
325  15
326  5
327  7
328  11
329  7
330  13
331  6
332  16
333  12
334  16
335  12
336  10
337  11
338  11
339  9
340  10
341  11
342  11
343  13
344  8
345  12
346  11
347  9
348  10
349  12
350  8
351  14
352  7
353  7
354  12
355  12
356  15
357  12
358  7
359  8
360  11
361  6
362  8
363  8
364  12
365  11
366  10
367  9
368  10
369  16
370  7
371  11
372  6
373  18
374  11
375  13
376  12
377  13
378  10
379  13
380  16
381  4
382  5
383  13
384  17
385  4
386  11
387  10
388  10
389  13
390  10
391  10
392  15
393  11
394  9
395  9
396  8
397  5
398  9
399  11
400  11
401  10
402  8
403  4
404  6
405  11
406  8
407  5
408  10
409  13
410  9
411  5
412  11
413  8
414  8
415  13
416  12
417  11
418  7
419  9
420  14
421  16
422  7
423  13
424  11
425  6
426  10
427  10
428  12
429  10
430  13
431  13
432  13
433  13
434  10
435  7
436  7
437  10
438  11
439  9
440  6
441  6
442  12
443  10
444  12
445  3
446  13
447  12
448  8
449  12
450  16
451  8
452  8
453  5
454  10
455  9
456  11
457  9
458  4
459  18
460  16
461  9
462  13
463  11
464  7
465  12
466  9
467  12
468  16
469  17
470  9
471  11
472  10
473  14
474  10
475  9
476  12
477  4
478  9
479  11
480  7
481  12
482  7
483  10
484  12
485  8
486  10
487  16
488  19
489  11
490  7
491  7
492  14
493  13
494  7
495  12
496  7
497  7
498  12
499  11
500  10
501  12
502  9
503  8
504  6
505  12
506  13
507  11
508  6
509  9
510  6
511  14
512  9
513  17
514  11
515  11
516  11
517  8
518  11
519  15
520  9
521  8
522  10
523  10
524  7
525  9
526  9
527  9
528  8
529  9
530  17
531  9
532  14
533  8
534  9
535  8
536  7
537  9
538  10
539  15
540  8
541  16
542  11
543  16
544  11
545  8
546  12
547  15
548  9
549  11
550  11
551  11
552  5
553  11
554  16
555  6
556  12
557  7
558  12
559  8
560  10
561  15
562  14
563  16
564  7
565  5
566  13
567  14
568  13
569  10
570  9
571  14
572  13
573  13
574  15
575  13
576  10
577  13
578  11
579  10
580  17
581  8
582  2
583  11
584  6
585  7
586  11
587  13
588  8
589  11
590  8
591  9
592  12
593  12
594  7
595  9
596  15
597  10
598  8
599  8
600  10
601  13
602  11
603  11
604  8
605  14
606  11
607  6
608  11
609  2
610  7
611  18
612  12
613  9
614  12
615  9
616  14
617  10
618  9
619  10
620  8
621  11
622  10
623  7
624  5
625  4
626  10
627  11
628  6
629  12
630  15
631  9
632  9
633  8
634  11
635  6
636  10
637  7
638  18
639  10
640  13
641  9
642  18
643  5
644  7
645  13
646  22
647  8
648  11
649  14
650  6
651  8
652  8
653  7
654  9
655  1
656  7
657  11
658  9
659  9
660  13
661  12
662  11
663  10
664  7
665  13
666  10
667  6
668  11
669  14
670  6
671  12
672  9
673  9
674  10
675  9
676  8
677  16
678  7
679  15
680  8
681  7
682  10
683  14
684  8
685  6
686  12
687  8
688  10
689  11
690  15
691  8
692  15
693  13
694  9
695  6
696  10
697  15
698  11
699  9
700  7
701  9
702  14
703  8
704  11
705  8
706  14
707  7
708  14
709  9
710  4
711  8
712  5
713  16
714  9
715  8
716  15
717  11
718  20
719  7
720  17
721  14
722  9
723  13
724  11
725  13
726  10
727  9
728  7
729  8
730  14
731  12
732  15
733  8
734  15
735  17
736  10
737  11
738  12
739  11
740  5
741  8
742  13
743  8
744  9
745  12
746  17
747  11
748  11
749  10
750  19
751  6
752  8
753  11
754  11
755  13
756  10
757  5
758  7
759  10
760  7
761  16
762  12
763  15
764  14
765  9
766  8
767  8
768  13
769  7
770  10
771  18
772  10
773  7
774  9
775  12
776  16
777  12
778  8
779  8
780  13
781  6
782  9
783  11
784  5
785  12
786  9
787  11
788  8
789  10
790  4
791  9
792  10
793  11
794  13
795  10
796  13
797  14
798  7
799  15
800  7
801  10
802  13
803  5
804  10
805  16
806  12
807  12
808  6
809  12
810  16
811  5
812  13
813  9
814  9
815  5
816  13
817  11
818  6
819  9
820  12
821  6
822  9
823  15
824  15
825  9
826  7
827  9
828  8
829  8
830  14
831  11
832  10
833  10
834  7
835  16
836  10
837  8
838  9
839  15
840  10
841  9
842  8
843  13
844  9
845  14
846  9
847  3
848  13
849  8
850  13
851  16
852  9
853  4
854  13
855  12
856  13
857  9
858  11
859  9
860  10
861  7
862  9
863  12
864  9
865  9
866  7
867  10
868  11
869  13
870  17
871  7
872  11
873  13
874  9
875  11
876  16
877  12
878  11
879  12
880  9
881  10
882  7
883  12
884  8
885  5
886  11
887  9
888  15
889  7
890  10
891  13
892  4
893  13
894  14
895  15
896  12
897  16
898  13
899  10
900  10
901  12
902  8
903  15
904  9
905  13
906  10
907  11
908  12
909  8
910  18
911  8
912  14
913  14
914  13
915  12
916  14
917  17
918  16
919  6
920  11
921  12
922  13
923  10
924  10
925  9
926  9
927  10
928  6
929  10
930  10
931  13
932  13
933  11
934  9
935  14
936  11
937  10
938  14
939  9
940  8
941  12
942  13
943  15
944  13
945  9
946  10
947  9
948  10
949  10
950  11
951  13
952  11
953  11
954  13
955  10
956  7
957  12
958  12
959  9
960  7
961  5
962  10
963  14
964  5
965  5
966  9
967  15
968  11
969  11
970  11
971  9
972  10
973  9
974  10
975  16
976  10
977  12
978  19
979  8
980  12
981  13
982  15
983  14
984  8
985  15
986  9
987  16
988  12
989  13
990  12
991  15
992  10
993  9
994  14
995  11
996  11
997  9
998  16
999  13
1000  15
1001  14
1002  15
1003  12
1004  6
1005  15
1006  11
1007  11
1008  14
1009  10
1010  13
1011  9
1012  15
1013  19
1014  16
1015  13
1016  9
1017  10
1018  9
1019  15
1020  11
1021  7
1022  7
1023  11
1024  11
1025  10
1026  13
1027  17
1028  12
1029  17
1030  9
1031  10
1032  6
1033  19
1034  9
1035  10
1036  10
1037  4
1038  8
1039  9
1040  15
1041  13
1042  10
1043  10
1044  12
1045  13
1046  12
1047  9
1048  15
1049  9
1050  10
1051  17
1052  8
1053  17
1054  13
1055  10
1056  14
1057  11
1058  11
1059  14
1060  15
1061  7
1062  16
1063  8
1064  11
1065  15
1066  16
1067  6
1068  16
1069  12
1070  12
1071  8
1072  10
1073  8
1074  10
1075  16
1076  6
1077  6
1078  16
1079  12
1080  18
1081  7
1082  8
1083  8
1084  11
1085  10
1086  12
1087  15
1088  11
1089  12
1090  11
1091  11
1092  12
1093  10
1094  18
1095  19
1096  15
1097  16
1098  14
1099  11
1100  9
1101  12
1102  10
1103  9
1104  16
1105  11
1106  16
1107  10
1108  8
1109  12
1110  10
1111  14
1112  6
1113  11
1114  9
1115  7
1116  14
1117  16
1118  8
1119  14
1120  11
1121  9
1122  9
1123  11
1124  11
1125  11
1126  11
1127  21
1128  10
1129  12
1130  14
1131  12
1132  11
1133  8
1134  12
1135  10
1136  7
1137  10
1138  11
1139  13
1140  7
1141  17
1142  12
1143  9
1144  13
1145  17
1146  12
1147  7
1148  15
1149  12
1150  16
1151  21
1152  10
1153  12
1154  15
1155  9
1156  5
1157  16
1158  10
1159  7
1160  9
1161  10
1162  10
1163  13
1164  8
1165  10
1166  12
1167  12
1168  13
1169  12
1170  10
1171  7
1172  11
1173  13
1174  8
1175  10
1176  17
1177  10
1178  11
1179  16
1180  8
1181  15
1182  11
1183  11
1184  9
1185  13
1186  12
1187  10
1188  14
1189  12
1190  12
1191  8
1192  13
1193  16
1194  12
1195  8
1196  16
1197  13
1198  13
1199  7
1200  8
1201  8
1202  7
1203  10
1204  15
1205  13
1206  15
1207  16
1208  9
1209  11
1210  16
1211  13
1212  14
1213  14
1214  14
1215  12
1216  20
1217  15
1218  16
1219  12
1220  5
1221  17
1222  8
1223  11
1224  12
1225  7
1226  14
1227  12
1228  9
1229  16
1230  11
1231  12
1232  13
1233  8
1234  10
1235  10
1236  13
1237  23
1238  15
1239  13
1240  13
1241  14
1242  7
1243  15
1244  16
1245  6
1246  19
1247  8
1248  6
1249  10
1250  11
1251  15
1252  15
1253  22
1254  8
1255  14
1256  8
1257  12
1258  20
1259  11
1260  13
1261  6
1262  14
1263  14
1264  9
1265  10
1266  13
1267  10
1268  13
1269  9
1270  17
1271  17
1272  11
1273  11
1274  11
1275  10
1276  11
1277  11
1278  12
1279  11
1280  12
1281  8
1282  7
1283  10
1284  8
1285  10
1286  12
1287  15
1288  10
1289  15
1290  15
1291  12
1292  14
1293  10
1294  14
1295  9
1296  16
1297  13
1298  13
1299  13
1300  10
1301  11
1302  13
1303  13
1304  25
1305  9
1306  17
1307  14
1308  12
1309  17
1310  13
1311  14
1312  12
1313  12
1314  11
1315  15
1316  13
1317  10
1318  16
1319  21
1320  12
1321  11
1322  9
1323  10
1324  18
1325  10
1326  4
1327  11
1328  11
1329  12
1330  17
1331  10
1332  13
1333  9
1334  12
1335  9
1336  13
1337  11
1338  13
1339  19
1340  16
1341  7
1342  7
1343  14
1344  12
1345  14
1346  11
1347  4
1348  19
1349  12
1350  15
1351  10
1352  12
1353  13
1354  10
1355  8
1356  8
1357  17
1358  6
1359  11
1360  11
1361  8
1362  11
1363  10
1364  11
1365  15
1366  18
1367  10
1368  16
1369  19
1370  8
1371  11
1372  17
1373  13
1374  20
1375  12
1376  9
1377  15
1378  18
1379  13
1380  9
1381  11
1382  16
1383  11
1384  8
1385  16
1386  13
1387  12
1388  11
1389  21
1390  14
1391  12
1392  18
1393  15
1394  12
1395  14
1396  17
1397  14
1398  15
1399  20
1400  18
1401  17
1402  9
1403  17
1404  19
1405  14
1406  14
1407  8
1408  19
1409  16
1410  15
1411  15
1412  18
1413  13
1414  13
1415  14
1416  11
1417  19
1418  14
1419  13
1420  10
1421  15
1422  15
1423  16
1424  15
1425  15
1426  14
1427  22
1428  13
1429  8
1430  13
1431  16
1432  15
1433  15
1434  14
1435  20
1436  16
1437  10
1438  24
1439  19
1440  16
1441  18
1442  20
1443  11
1444  16
1445  17
1446  13
1447  26
1448  25
1449  11
1450  21
1451  17
1452  11
1453  21
1454  14
1455  17
1456  12
1457  13
1458  18
1459  15
1460  15
1461  22
1462  17
1463  23
1464  13
1465  13
1466  15
1467  15
1468  19
1469  17
1470  14
1471  17
1472  17
1473  23
1474  11
1475  20
1476  13
1477  20
1478  26
1479  20
1480  17
1481  21
1482  12
1483  23
1484  18
1485  18
1486  28
1487  14
1488  22
1489  21
1490  23
1491  18
1492  22
1493  21
1494  14
1495  9
1496  20
1497  27
1498  25
1499  17
1500  28
1501  24
1502  22
1503  38
1504  23
1505  35
1506  32
1507  29
1508  28
1509  29
1510  39
1511  33
1512  21
1513  23
1514  19
1515  26
1516  35
1517  24
1518  22
1519  24
1520  30
1521  15
1522  16
1523  18
1524  14
1525  8
1526  12
1527  14
1528  11
1529  9
1530  14
1531  9
1532  8
1533  13
1534  9
1535  10
1536  14
1537  8
1538  10
1539  15
1540  13
1541  9
1542  13
1543  15
1544  6
1545  6
1546  6
1547  13
1548  11
1549  16
1550  9
1551  18
1552  10
1553  11
1554  13
1555  16
1556  9
1557  6
1558  12
1559  12
1560  11
1561  17
1562  15
1563  15
1564  12
1565  7
1566  14
1567  9
1568  10
1569  13
1570  16
1571  8
1572  9
1573  17
1574  19
1575  8
1576  12
1577  8
1578  6
1579  8
1580  14
1581  10
1582  9
1583  12
1584  13
1585  13
1586  8
1587  10
1588  10
1589  17
1590  6
1591  9
1592  14
1593  11
1594  10
1595  8
1596  9
1597  11
1598  9
1599  9
1600  13
1601  11
1602  13
1603  11
1604  7
1605  13
1606  15
1607  15
1608  13
1609  8
1610  11
1611  9
1612  6
1613  7
1614  10
1615  9
1616  18
1617  16
1618  8
1619  9
1620  9
1621  7
1622  20
1623  9
1624  13
1625  11
1626  11
1627  11
1628  8
1629  11
1630  11
1631  10
1632  12
1633  14
1634  12
1635  11
1636  9
1637  10
1638  12
1639  11
1640  9
1641  13
1642  6
1643  7
1644  9
1645  4
1646  7
1647  9
1648  12
1649  12
1650  12
1651  15
1652  19
1653  16
1654  14
1655  10
1656  14
1657  18
1658  12
1659  8
1660  8
1661  8
1662  10
1663  9
1664  15
1665  7
1666  16
1667  10
1668  19
1669  13
1670  15
1671  7
1672  15
1673  15
1674  16
1675  15
1676  13
1677  9
1678  15
1679  19
1680  8
1681  8
1682  17
1683  14
1684  9
1685  13
1686  9
1687  13
1688  10
1689  7
1690  12
1691  11
1692  14
1693  14
1694  15
1695  11
1696  9
1697  10
1698  17
1699  16
1700  11
1701  19
1702  9
1703  13
1704  14
1705  17
1706  6
1707  7
1708  18
1709  10
1710  15
1711  20
1712  8
1713  8
1714  16
1715  24
1716  14
1717  14
1718  13
1719  12
1720  14
1721  15
1722  20
1723  24
1724  13
1725  28
1726  24
1727  13
1728  24
1729  12
1730  20
1731  23
1732  13
1733  16
1734  21
1735  28
1736  30
1737  26
1738  22
1739  22
1740  25
1741  29
1742  20
1743  21
1744  24
1745  33
1746  27
1747  25
1748  30
1749  30
1750  24
1751  34
1752  40
1753  42
1754  26
1755  27
1756  27
1757  41
1758  37
1759  33
1760  33
1761  34
1762  41
1763  34
1764  37
1765  44
1766  44
1767  36
1768  42
1769  40
1770  42
1771  54
1772  43
1773  40
1774  44
1775  37
1776  57
1777  38
1778  40
1779  45
1780  45
1781  37
1782  49
1783  38
1784  47
1785  39
1786  48
1787  49
1788  62
1789  38
1790  35
1791  58
1792  55
1793  38
1794  44
1795  52
1796  48
1797  63
1798  59
1799  49
1800  42
1801  54
1802  55
1803  43
1804  52
1805  45
1806  51
1807  61
1808  59
1809  52
1810  43
1811  53
1812  52
1813  45
1814  45
1815  50
1816  52
1817  49
1818  58
1819  51
1820  64
1821  47
1822  49
1823  40
1824  57
1825  50
1826  56
1827  58
1828  66
1829  50
1830  46
1831  57
1832  49
1833  53
1834  45
1835  56
1836  58
1837  40
1838  60
1839  53
1840  47
1841  45
1842  48
1843  62
1844  54
1845  59
1846  55
1847  56
1848  51
1849  46
1850  54
1851  49
1852  39
1853  60
1854  47
1855  34
1856  51
1857  41
1858  56
1859  56
1860  53
1861  56
1862  53
1863  49
1864  46
1865  71
1866  61
1867  49
1868  58
1869  51
1870  48
1871  57
1872  50
1873  63
1874  57
1875  53
1876  48
1877  60
1878  50
1879  65
1880  70
1881  65
1882  50
1883  59
1884  71
1885  61
1886  57
1887  71
1888  73
1889  61
1890  58
1891  68
1892  74
1893  68
1894  89
1895  71
1896  102
1897  102
1898  78
1899  89
1900  74
1901  94
1902  93
1903  86
1904  94
1905  93
1906  82
1907  73
1908  108
1909  110
1910  79
1911  117
1912  109
1913  105
1914  106
1915  125
1916  113
1917  120
1918  105
1919  135
1920  122
1921  101
1922  117
1923  131
1924  118
1925  125
1926  156
1927  120
1928  141
1929  144
1930  153
1931  171
1932  159
1933  158
1934  148
1935  156
1936  192
1937  175
1938  155
1939  194
1940  170
1941  186
1942  169
1943  186
1944  203
1945  195
1946  163
1947  191
1948  217
1949  196
1950  199
1951  215
1952  198
1953  252
1954  218
1955  231
1956  228
1957  253
1958  254
1959  286
1960  264
1961  289
1962  306
1963  295
1964  316
1965  300
1966  313
1967  333
1968  396
1969  373
1970  399
1971  408
1972  451
1973  408
1974  464
1975  556
1976  595
1977  635
1978  680
1979  722
1980  739
1981  814
1982  871
1983  989
1984  1011
1985  1163
1986  1288
1987  1397
1988  1387
1989  1486
1990  1540
1991  1665
1992  1685
1993  1775
1994  1772
1995  1817
1996  1903
1997  1853
1998  1790
1999  1715
2000  1784
2001  1747
2002  1593
2003  1601
2004  1488
2005  1436
2006  1344
2007  1263
2008  1083
2009  1087
2010  901
2011  807
2012  698
2013  575
2014  520
2015  376
2016  306
2017  252
2018  180
2019  160
2020  96
2021  79
2022  38
2023  34
2024  23
2025  31
2026  18
2027  12
2028  15
2029  15
2030  13
2031  10
2032  7
2033  13
2034  11
2035  9
2036  9
2037  15
2038  9
2039  10
2040  11
2041  15
2042  17
2043  19
2044  13
2045  13
2046  12
2047  14
2048  8
2049  22
2050  12
2051  16
2052  13
2053  16
2054  13
2055  17
2056  8
2057  16
2058  11
2059  15
2060  14
2061  10
2062  6
2063  10
2064  13
2065  10
2066  12
2067  8
2068  8
2069  6
2070  13
2071  10
2072  7
2073  6
2074  8
2075  11
2076  11
2077  9
2078  6
2079  7
2080  13
2081  13
2082  12
2083  12
2084  14
2085  11
2086  9
2087  10
2088  4
2089  7
2090  8
2091  11
2092  11
2093  8
2094  9
2095  10
2096  9
2097  16
2098  10
2099  14
2100  9
2101  8
2102  10
2103  14
2104  12
2105  12
2106  13
2107  15
2108  9
2109  12
2110  10
2111  15
2112  8
2113  14
2114  12
2115  9
2116  14
2117  7
2118  15
2119  12
2120  15
2121  13
2122  12
2123  8
2124  11
2125  10
2126  8
2127  12
2128  16
2129  9
2130  7
2131  10
2132  15
2133  11
2134  7
2135  9
2136  7
2137  9
2138  8
2139  11
2140  6
2141  9
2142  9
2143  12
2144  10
2145  16
2146  18
2147  6
2148  7
2149  5
2150  10
2151  13
2152  11
2153  12
2154  9
2155  12
2156  12
2157  11
2158  10
2159  6
2160  7
2161  7
2162  13
2163  10
2164  9
2165  7
2166  7
2167  8
2168  4
2169  11
2170  12
2171  6
2172  4
2173  13
2174  11
2175  8
2176  19
2177  10
2178  13
2179  8
2180  10
2181  14
2182  6
2183  8
2184  8
2185  8
2186  9
2187  18
2188  8
2189  9
2190  14
2191  8
2192  17
2193  12
2194  10
2195  10
2196  12
2197  9
2198  6
2199  10
2200  13
2201  22
2202  14
2203  7
2204  10
2205  15
2206  8
2207  10
2208  10
2209  13
2210  10
2211  5
2212  6
2213  16
2214  11
2215  11
2216  13
2217  9
2218  10
2219  11
2220  8
2221  8
2222  6
2223  7
2224  18
2225  11
2226  9
2227  13
2228  9
2229  12
2230  11
2231  12
2232  7
2233  14
2234  7
2235  13
2236  11
2237  6
2238  11
2239  9
2240  14
2241  6
2242  6
2243  10
2244  5
2245  11
2246  15
2247  6
2248  7
2249  3
2250  11
2251  3
2252  14
2253  11
2254  12
2255  5
2256  11
2257  15
2258  7
2259  8
2260  10
2261  10
2262  7
2263  17
2264  12
2265  12
2266  17
2267  10
2268  10
2269  16
2270  12
2271  6
2272  17
2273  13
2274  10
2275  10
2276  10
2277  10
2278  11
2279  4
2280  12
2281  7
2282  11
2283  5
2284  12
2285  8
2286  16
2287  6
2288  8
2289  6
2290  10
2291  16
2292  12
2293  12
2294  7
2295  10
2296  3
2297  15
2298  8
2299  14
2300  9
2301  8
2302  5
2303  11
2304  9
2305  14
2306  19
2307  9
2308  9
2309  5
2310  16
2311  13
2312  17
2313  14
2314  10
2315  18
2316  15
2317  9
2318  8
2319  9
2320  13
2321  13
2322  8
2323  6
2324  8
2325  12
2326  15
2327  9
2328  11
2329  7
2330  7
2331  10
2332  11
2333  12
2334  14
2335  13
2336  10
2337  12
2338  8
2339  6
2340  12
2341  11
2342  8
2343  6
2344  8
2345  10
2346  9
2347  12
2348  9
2349  10
2350  10
2351  7
2352  8
2353  10
2354  10
2355  9
2356  9
2357  8
2358  9
2359  8
2360  10
2361  12
2362  8
2363  9
2364  15
2365  6
2366  9
2367  8
2368  11
2369  12
2370  9
2371  10
2372  11
2373  13
2374  14
2375  16
2376  11
2377  11
2378  11
2379  12
2380  6
2381  11
2382  17
2383  10
2384  13
2385  17
2386  13
2387  10
2388  10
2389  14
2390  8
2391  10
2392  10
2393  14
2394  10
2395  4
2396  11
2397  8
2398  8
2399  11
2400  8
2401  8
2402  3
2403  11
2404  9
2405  7
2406  6
2407  6
2408  12
2409  6
2410  9
2411  11
2412  4
2413  17
2414  7
2415  7
2416  11
2417  12
2418  10
2419  13
2420  17
2421  13
2422  13
2423  13
2424  9
2425  12
2426  16
2427  12
2428  15
2429  13
2430  14
2431  6
2432  11
2433  14
2434  11
2435  8
2436  8
2437  14
2438  14
2439  12
2440  12
2441  11
2442  12
2443  15
2444  9
2445  11
2446  15
2447  10
2448  11
2449  8
2450  15
2451  7
2452  11
2453  6
2454  10
2455  17
2456  15
2457  10
2458  8
2459  9
2460  10
2461  9
2462  9
2463  17
2464  10
2465  9
2466  10
2467  7
2468  9
2469  9
2470  11
2471  4
2472  10
2473  6
2474  9
2475  10
2476  15
2477  7
2478  13
2479  12
2480  11
2481  14
2482  4
2483  7
2484  9
2485  12
2486  12
2487  11
2488  13
2489  11
2490  10
2491  10
2492  8
2493  9
2494  17
2495  10
2496  14
2497  17
2498  13
2499  8
2500  19
2501  17
2502  14
2503  17
2504  11
2505  14
2506  8
2507  17
2508  9
2509  6
2510  13
2511  7
2512  10
2513  7
2514  17
2515  11
2516  11
2517  13
2518  7
2519  18
2520  10
2521  8
2522  15
2523  9
2524  10
2525  9
2526  7
2527  15
2528  9
2529  10
2530  10
2531  10
2532  5
2533  9
2534  8
2535  11
2536  13
2537  9
2538  10
2539  12
2540  8
2541  10
2542  13
2543  12
2544  10
2545  10
2546  10
2547  10
2548  11
2549  11
2550  10
2551  19
2552  8
2553  15
2554  10
2555  8
2556  11
2557  9
2558  8
2559  9
2560  9
2561  15
2562  7
2563  11
2564  13
2565  14
2566  9
2567  12
2568  8
2569  10
2570  9
2571  11
2572  15
2573  4
2574  6
2575  8
2576  10
2577  10
2578  9
2579  9
2580  9
2581  11
2582  14
2583  11
2584  7
2585  10
2586  16
2587  10
2588  5
2589  11
2590  10
2591  4
2592  15
2593  16
2594  13
2595  15
2596  12
2597  9
2598  15
2599  10
2600  16
2601  8
2602  6
2603  7
2604  13
2605  9
2606  7
2607  12
2608  11
2609  10
2610  7
2611  8
2612  10
2613  18
2614  6
2615  12
2616  11
2617  10
2618  9
2619  13
2620  8
2621  7
2622  10
2623  11
2624  10
2625  14
2626  15
2627  9
2628  6
2629  10
2630  11
2631  11
2632  13
2633  6
2634  14
2635  9
2636  9
2637  14
2638  9
2639  11
2640  13
2641  14
2642  6
2643  13
2644  15
2645  12
2646  9
2647  14
2648  17
2649  13
2650  10
2651  10
2652  9
2653  13
2654  8
2655  7
2656  2
2657  14
2658  12
2659  12
2660  10
2661  14
2662  7
2663  10
2664  11
2665  11
2666  9
2667  9
2668  10
2669  11
2670  11
2671  9
2672  16
2673  13
2674  10
2675  10
2676  12
2677  9
2678  14
2679  6
2680  11
2681  12
2682  7
2683  11
2684  16
2685  9
2686  11
2687  9
2688  15
2689  14
2690  9
2691  9
2692  7
2693  12
2694  15
2695  10
2696  10
2697  10
2698  6
2699  5
2700  18
2701  11
2702  9
2703  11
2704  5
2705  5
2706  6
2707  13
2708  15
2709  7
2710  7
2711  9
2712  12
2713  8
2714  6
2715  10
2716  9
2717  11
2718  8
2719  14
2720  14
2721  17
2722  6
2723  9
2724  14
2725  11
2726  8
2727  9
2728  12
2729  10
2730  8
2731  13
2732  14
2733  12
2734  13
2735  6
2736  6
2737  13
2738  8
2739  8
2740  18
2741  6
2742  15
2743  12
2744  16
2745  13
2746  7
2747  7
2748  10
2749  11
2750  13
2751  9
2752  8
2753  15
2754  12
2755  12
2756  12
2757  9
2758  9
2759  7
2760  9
2761  13
2762  12
2763  9
2764  9
2765  12
2766  11
2767  8
2768  12
2769  7
2770  8
2771  11
2772  14
2773  17
2774  12
2775  13
2776  12
2777  12
2778  15
2779  12
2780  16
2781  11
2782  7
2783  19
2784  10
2785  11
2786  15
2787  12
2788  18
2789  11
2790  7
2791  19
2792  11
2793  17
2794  17
2795  17
2796  15
2797  8
2798  16
2799  16
2800  20
2801  12
2802  13
2803  16
2804  9
2805  13
2806  16
2807  15
2808  16
2809  14
2810  18
2811  11
2812  13
2813  14
2814  17
2815  14
2816  19
2817  18
2818  16
2819  8
2820  20
2821  19
2822  17
2823  23
2824  14
2825  16
2826  18
2827  20
2828  16
2829  20
2830  21
2831  25
2832  37
2833  27
2834  20
2835  39
2836  40
2837  46
2838  50
2839  54
2840  68
2841  70
2842  64
2843  74
2844  83
2845  73
2846  84
2847  70
2848  67
2849  57
2850  59
2851  83
2852  70
2853  49
2854  59
2855  51
2856  42
2857  50
2858  34
2859  35
2860  31
2861  27
2862  30
2863  13
2864  20
2865  15
2866  9
2867  15
2868  16
2869  11
2870  10
2871  16
2872  10
2873  7
2874  12
2875  9
2876  12
2877  5
2878  10
2879  5
2880  14
2881  9
2882  13
2883  14
2884  13
2885  6
2886  11
2887  14
2888  14
2889  11
2890  15
2891  7
2892  6
2893  10
2894  12
2895  8
2896  10
2897  18
2898  18
2899  17
2900  10
2901  10
2902  20
2903  14
2904  17
2905  14
2906  8
2907  12
2908  10
2909  8
2910  11
2911  10
2912  13
2913  5
2914  10
2915  9
2916  8
2917  12
2918  9
2919  14
2920  9
2921  12
2922  13
2923  14
2924  9
2925  14
2926  10
2927  12
2928  11
2929  8
2930  9
2931  12
2932  13
2933  10
2934  8
2935  11
2936  13
2937  15
2938  16
2939  9
2940  11
2941  11
2942  15
2943  15
2944  20
2945  5
2946  7
2947  8
2948  3
2949  5
2950  4
2951  14
2952  9
2953  10
2954  13
2955  5
2956  14
2957  15
2958  6
2959  10
2960  9
2961  14
2962  13
2963  10
2964  10
2965  10
2966  12
2967  17
2968  9
2969  6
2970  15
2971  11
2972  9
2973  8
2974  6
2975  4
2976  7
2977  6
2978  12
2979  9
2980  4
2981  7
2982  10
2983  11
2984  6
2985  14
2986  17
2987  19
2988  7
2989  8
2990  13
2991  10
2992  14
2993  10
2994  12
2995  4
2996  10
2997  7
2998  11
2999  12
3000  16
3001  11
3002  10
3003  11
3004  13
3005  11
3006  15
3007  11
3008  14
3009  13
3010  6
3011  5
3012  7
3013  5
3014  9
3015  12
3016  8
3017  8
3018  13
3019  8
3020  5
3021  13
3022  5
3023  14
3024  9
3025  10
3026  8
3027  12
3028  11
3029  12
3030  11
3031  11
3032  5
3033  11
3034  8
3035  15
3036  7
3037  7
3038  14
3039  9
3040  9
3041  12
3042  13
3043  9
3044  16
3045  11
3046  4
3047  12
3048  6
3049  8
3050  6
3051  11
3052  7
3053  13
3054  9
3055  9
3056  11
3057  9
3058  10
3059  12
3060  5
3061  11
3062  9
3063  12
3064  7
3065  14
3066  6
3067  9
3068  11
3069  15
3070  7
3071  11
3072  9
3073  16
3074  14
3075  14
3076  13
3077  6
3078  14
3079  14
3080  13
3081  13
3082  8
3083  13
3084  15
3085  10
3086  5
3087  10
3088  10
3089  12
3090  8
3091  14
3092  8
3093  13
3094  13
3095  14
3096  10
3097  6
3098  11
3099  8
3100  9
3101  14
3102  14
3103  11
3104  14
3105  7
3106  11
3107  11
3108  7
3109  10
3110  9
3111  16
3112  12
3113  12
3114  9
3115  6
3116  10
3117  8
3118  6
3119  4
3120  13
3121  16
3122  18
3123  8
3124  11
3125  13
3126  16
3127  9
3128  10
3129  8
3130  17
3131  10
3132  7
3133  10
3134  12
3135  13
3136  8
3137  13
3138  11
3139  12
3140  8
3141  3
3142  6
3143  6
3144  22
3145  8
3146  10
3147  12
3148  11
3149  18
3150  8
3151  7
3152  14
3153  9
3154  9
3155  10
3156  11
3157  8
3158  8
3159  12
3160  10
3161  12
3162  13
3163  13
3164  13
3165  8
3166  7
3167  12
3168  13
3169  8
3170  10
3171  12
3172  8
3173  14
3174  10
3175  5
3176  10
3177  8
3178  9
3179  10
3180  12
3181  7
3182  11
3183  10
3184  9
3185  17
3186  15
3187  14
3188  12
3189  9
3190  9
3191  15
3192  10
3193  9
3194  12
3195  17
3196  13
3197  12
3198  9
3199  6
3200  11
3201  11
3202  13
3203  6
3204  9
3205  16
3206  13
3207  11
3208  5
3209  6
3210  11
3211  12
3212  10
3213  13
3214  14
3215  10
3216  10
3217  11
3218  11
3219  8
3220  5
3221  13
3222  8
3223  4
3224  15
3225  9
3226  9
3227  7
3228  8
3229  17
3230  10
3231  14
3232  17
3233  6
3234  12
3235  14
3236  12
3237  6
3238  9
3239  11
3240  7
3241  6
3242  15
3243  5
3244  8
3245  10
3246  8
3247  11
3248  7
3249  9
3250  10
3251  11
3252  9
3253  10
3254  7
3255  14
3256  9
3257  11
3258  12
3259  14
3260  10
3261  6
3262  11
3263  14
3264  10
3265  14
3266  14
3267  9
3268  9
3269  15
3270  10
3271  14
3272  8
3273  7
3274  13
3275  14
3276  10
3277  8
3278  11
3279  15
3280  11
3281  7
3282  9
3283  3
3284  10
3285  12
3286  7
3287  12
3288  7
3289  6
3290  6
3291  7
3292  7
3293  11
3294  12
3295  10
3296  8
3297  7
3298  17
3299  11
3300  9
3301  11
3302  12
3303  8
3304  13
3305  9
3306  16
3307  4
3308  8
3309  10
3310  12
3311  13
3312  12
3313  9
3314  12
3315  8
3316  17
3317  21
3318  5
3319  9
3320  11
3321  11
3322  13
3323  12
3324  10
3325  11
3326  7
3327  9
3328  7
3329  11
3330  10
3331  7
3332  12
3333  5
3334  9
3335  9
3336  12
3337  10
3338  11
3339  8
3340  9
3341  10
3342  5
3343  10
3344  9
3345  8
3346  6
3347  6
3348  10
3349  15
3350  10
3351  4
3352  12
3353  13
3354  14
3355  14
3356  11
3357  9
3358  11
3359  10
3360  16
3361  6
3362  12
3363  9
3364  8
3365  9
3366  10
3367  8
3368  12
3369  11
3370  5
3371  12
3372  8
3373  16
3374  10
3375  13
3376  19
3377  5
3378  10
3379  15
3380  6
3381  9
3382  9
3383  15
3384  11
3385  3
3386  7
3387  8
3388  9
3389  7
3390  15
3391  13
3392  10
3393  13
3394  7
3395  9
3396  19
3397  11
3398  10
3399  13
3400  13
3401  10
3402  11
3403  6
3404  12
3405  12
3406  8
3407  10
3408  11
3409  10
3410  5
3411  13
3412  9
3413  10
3414  8
3415  6
3416  7
3417  1
3418  4
3419  4
3420  6
3421  3
3422  6
3423  5
3424  2
3425  0
3426  1
3427  2
3428  0
3429  0
3430  0
3431  0
3432  0
3433  0
3434  0
3435  0
3436  0
3437  0
3438  0
3439  0
3440  0
3441  0
3442  0
3443  0
3444  0
3445  0
3446  0
3447  0
3448  0
3449  0
3450  0
3451  0
3452  0
3453  0
3454  0
3455  0
3456  0
3457  0
3458  0
3459  0
3460  0
3461  0
3462  0
3463  0
3464  0
3465  0
3466  0
3467  0
3468  0
3469  0
3470  0
3471  0
3472  0
3473  0
3474  0
3475  0
3476  0
3477  0
3478  0
3479  0
3480  0
3481  0
3482  0
3483  0
3484  0
3485  0
3486  0
3487  0
3488  0
3489  0
3490  0
3491  0
3492  0
3493  0
3494  0
3495  0
3496  0
3497  0
3498  0
3499  0
3500  0
3501  0
3502  0
3503  0
3504  0
3505  0
3506  0
3507  0
3508  0
3509  0
3510  0
3511  0
3512  0
3513  0
3514  0
3515  0
3516  0
3517  0
3518  0
3519  0
3520  0
3521  0
3522  0
3523  0
3524  0
3525  0
3526  0
3527  0
3528  0
3529  0
3530  0
3531  0
3532  0
3533  0
3534  0
3535  0
3536  0
3537  0
3538  0
3539  0
3540  0
3541  0
3542  0
3543  0
3544  0
3545  0
3546  0
3547  0
3548  0
3549  0
3550  0
3551  0
3552  0
3553  0
3554  0
3555  0
3556  0
3557  0
3558  0
3559  0
3560  0
3561  0
3562  0
3563  0
3564  0
3565  0
3566  0
3567  0
3568  0
3569  0
3570  0
3571  0
3572  0
3573  0
3574  0
3575  0
3576  0
3577  0
3578  0
3579  0
3580  0
3581  0
3582  0
3583  0
3584  0
3585  0
3586  0
3587  0
3588  0
3589  0
3590  0
3591  0
3592  0
3593  0
3594  0
3595  0
3596  0
3597  0
3598  0
3599  0
3600  0
3601  0
3602  0
3603  0
3604  0
3605  0
3606  0
3607  0
3608  0
3609  0
3610  0
3611  0
3612  0
3613  0
3614  0
3615  0
3616  0
3617  0
3618  0
3619  0
3620  0
3621  0
3622  0
3623  0
3624  0
3625  0
3626  0
3627  0
3628  0
3629  0
3630  0
3631  0
3632  0
3633  0
3634  0
3635  0
3636  0
3637  0
3638  0
3639  0
3640  0
3641  0
3642  0
3643  0
3644  0
3645  0
3646  0
3647  0
3648  0
3649  0
3650  0
3651  0
3652  0
3653  0
3654  0
3655  0
3656  0
3657  0
3658  0
3659  0
3660  0
3661  0
3662  0
3663  0
3664  0
3665  0
3666  0
3667  0
3668  0
3669  0
3670  0
3671  0
3672  0
3673  0
3674  0
3675  0
3676  0
3677  0
3678  0
3679  0
3680  0
3681  0
3682  0
3683  0
3684  0
3685  0
3686  0
3687  0
3688  0
3689  0
3690  0
3691  0
3692  0
3693  0
3694  0
3695  0
3696  0
3697  0
3698  0
3699  0
3700  0
3701  0
3702  0
3703  0
3704  0
3705  0
3706  0
3707  0
3708  0
3709  0
3710  0
3711  0
3712  0
3713  0
3714  0
3715  0
3716  0
3717  0
3718  0
3719  0
3720  0
3721  0
3722  0
3723  0
3724  0
3725  0
3726  0
3727  0
3728  0
3729  0
3730  0
3731  0
3732  0
3733  0
3734  0
3735  0
3736  0
3737  0
3738  0
3739  0
3740  0
3741  0
3742  0
3743  0
3744  0
3745  0
3746  0
3747  0
3748  0
3749  0
3750  0
3751  0
3752  0
3753  0
3754  0
3755  0
3756  0
3757  0
3758  0
3759  0
3760  0
3761  0
3762  0
3763  0
3764  0
3765  0
3766  0
3767  0
3768  0
3769  0
3770  0
3771  0
3772  0
3773  0
3774  0
3775  0
3776  0
3777  0
3778  0
3779  0
3780  0
3781  0
3782  0
3783  0
3784  0
3785  0
3786  0
3787  0
3788  0
3789  0
3790  0
3791  0
3792  0
3793  0
3794  0
3795  0
3796  0
3797  0
3798  0
3799  0
3800  0
3801  0
3802  0
3803  0
3804  0
3805  0
3806  0
3807  0
3808  0
3809  0
3810  0
3811  0
3812  0
3813  0
3814  0
3815  0
3816  0
3817  0
3818  0
3819  0
3820  0
3821  0
3822  0
3823  0
3824  0
3825  0
3826  0
3827  0
3828  0
3829  0
3830  0
3831  0
3832  0
3833  0
3834  0
3835  0
3836  0
3837  0
3838  0
3839  0
3840  0
3841  0
3842  0
3843  0
3844  0
3845  0
3846  0
3847  0
3848  0
3849  0
3850  0
3851  0
3852  0
3853  0
3854  0
3855  0
3856  0
3857  0
3858  0
3859  0
3860  0
3861  0
3862  0
3863  0
3864  0
3865  0
3866  0
3867  0
3868  0
3869  0
3870  0
3871  0
3872  0
3873  0
3874  0
3875  0
3876  0
3877  0
3878  0
3879  0
3880  0
3881  0
3882  0
3883  0
3884  0
3885  0
3886  0
3887  0
3888  0
3889  0
3890  0
3891  0
3892  0
3893  0
3894  0
3895  0
3896  0
3897  0
3898  0
3899  0
3900  0
3901  0
3902  0
3903  0
3904  0
3905  0
3906  0
3907  0
3908  0
3909  0
3910  0
3911  0
3912  0
3913  0
3914  0
3915  0
3916  0
3917  0
3918  0
3919  0
3920  0
3921  0
3922  0
3923  0
3924  0
3925  0
3926  0
3927  0
3928  0
3929  0
3930  0
3931  0
3932  0
3933  0
3934  0
3935  0
3936  0
3937  0
3938  0
3939  0
3940  0
3941  0
3942  0
3943  0
3944  0
3945  0
3946  0
3947  0
3948  0
3949  0
3950  0
3951  0
3952  0
3953  0
3954  0
3955  0
3956  0
3957  0
3958  0
3959  0
3960  0
3961  0
3962  0
3963  0
3964  0
3965  0
3966  0
3967  0
3968  0
3969  0
3970  0
3971  0
3972  0
3973  0
3974  0
3975  0
3976  0
3977  0
3978  0
3979  0
3980  0
3981  0
3982  0
3983  0
3984  0
3985  0
3986  0
3987  0
3988  0
3989  0
3990  0
3991  0
3992  0
3993  0
3994  0
3995  0
3996  0
3997  0
3998  0
3999  0
4000  0
4001  0
4002  0
4003  0
4004  0
4005  0
4006  0
4007  0
4008  0
4009  0
4010  0
4011  0
4012  0
4013  0
4014  0
4015  0
4016  0
4017  0
4018  0
4019  0
4020  0
4021  0
4022  0
4023  0
4024  0
4025  0
4026  0
4027  0
4028  0
4029  0
4030  0
4031  0
4032  0
4033  0
4034  0
4035  0
4036  0
4037  0
4038  0
4039  0
4040  0
4041  0
4042  0
4043  0
4044  0
4045  0
4046  0
4047  0
4048  0
4049  0
4050  0
4051  0
4052  0
4053  0
4054  0
4055  0
4056  0
4057  0
4058  0
4059  0
4060  0
4061  0
4062  0
4063  0
4064  0
4065  0
4066  0
4067  0
4068  0
4069  0
4070  0
4071  0
4072  0
4073  0
4074  0
4075  0
4076  0
4077  0
4078  0
4079  0
4080  0
4081  0
4082  0
4083  0
4084  0
4085  0
4086  0
4087  0
4088  0
4089  0
4090  0
4091  0
4092  0
4093  0
4094  0
4095  0
